D:\JEREMY\CHROMATOGRAMS\20180112 2MBALDOXIME\20180112_2MBaldoxime_10kdil.d 12 Jan 18   2:44 pm
Start of data points
3.8933,613050
3.8996,492312
3.90592,502314
3.91222,571634
3.91853,633641
3.92483,682947
3.93115,717263
3.93745,745136
3.94377,755170
3.95007,758855
3.95638,742779
3.9627,725658
3.969,687891
3.97532,682014
3.98162,645091
3.98793,630368
3.99423,599054
4.00055,581511
4.00685,570267
4.01317,539277
4.01947,513779
4.02578,478932
4.03208,450265
4.0384,428208
4.0447,405276
4.05102,396182
4.05732,374896
4.06363,347936
4.06993,334179
4.07625,310676
4.08255,293577
4.08887,274845
4.09517,266305
4.10148,253857
4.10778,240181
4.1141,229230
4.1204,216389
4.12672,210897
4.13303,210706
4.13933,204424
4.14565,197770
4.15195,193889
4.15827,182676
4.16457,172743
4.17088,164496
4.17718,163863
4.1835,175163
4.1898,181981
4.19612,174106
4.20242,155045
4.20873,136566
4.21503,129740
4.22135,123142
4.22765,120745
4.23397,120597
4.24027,112704
4.24658,111073
4.25288,110822
4.2592,112977
4.2655,108863
4.27182,115916
4.27812,109878
4.28443,106682
4.29073,98479
4.29705,94103
4.30335,92497
4.30967,91033
4.31598,88885
4.32228,87046
4.3286,85668
4.3349,86706
4.34122,88663
4.34752,93170
4.35383,90965
4.36013,91813
4.36645,87240
4.37275,86279
4.37907,75055
4.38537,76367
4.39168,73674
4.39798,73595
4.4043,73702
4.4106,74219
4.41692,83532
4.42322,98693
4.42953,107701
4.43583,99612
4.44215,84564
4.44845,75109
4.45477,69068
4.46107,67925
4.46738,67706
4.47368,66559
4.48,66150
4.48632,67237
4.49262,64367
4.49893,65519
4.50523,60625
4.51155,68263
4.51785,60740
4.52417,64290
4.53047,64163
4.53678,62635
4.54308,63401
4.5494,59975
4.5557,65175
4.56202,58361
4.56832,59869
4.57463,59191
4.58093,59993
4.58725,57025
4.59355,59577
4.59987,60996
4.60617,58427
4.61248,58246
4.61878,57041
4.6251,56514
4.6314,56244
4.63772,55884
4.64402,58206
4.65033,56038
4.65665,56213
4.66295,57927
4.66927,58009
4.67557,56298
4.68188,55820
4.68818,58459
4.6945,56534
4.7008,55998
4.70712,58710
4.71342,66786
4.71973,76819
4.72603,83585
4.73235,77107
4.73865,66666
4.74497,59978
4.75127,54799
4.75758,53571
4.76388,54384
4.7702,63819
4.7765,90498
4.78282,126806
4.78912,151302
4.79543,143989
4.80173,108659
4.80805,75882
4.81435,59673
4.82067,54542
4.82698,53262
4.83328,55121
4.8396,58517
4.8459,60307
4.85222,56240
4.85852,54601
4.86483,55568
4.87113,52494
4.87745,55989
4.88375,57338
4.89007,57617
4.89637,58452
4.90268,64434
4.90898,78721
4.9153,101657
4.9216,146427
4.92792,181708
4.93422,200610
4.94053,177946
4.94683,138021
4.95315,107943
4.95945,87280
4.96577,79519
4.97207,73604
4.97838,70115
4.98468,69056
4.991,64015
4.99732,64853
5.00362,63556
5.00993,62987
5.01623,65745
5.02255,76229
5.02885,98134
5.03517,127470
5.04147,142521
5.04778,140888
5.05408,126406
5.0604,132605
5.0667,156383
5.07302,176157
5.07932,175916
5.08563,146636
5.09193,114462
5.09825,95109
5.10455,80972
5.11087,74239
5.11717,73086
5.12348,82338
5.12978,98778
5.1361,137596
5.1424,162024
5.14872,157157
5.15502,125314
5.16133,93222
5.16763,73038
5.17395,63155
5.18027,55867
5.18657,61860
5.19288,63031
5.19918,59533
5.2055,61421
5.2118,56869
5.21812,52697
5.22442,55455
5.23073,57440
5.23703,55188
5.24335,56544
5.24965,51777
5.25597,51836
5.26227,57137
5.26858,57027
5.27488,64056
5.2812,73405
5.2875,88549
5.29382,98395
5.30012,94661
5.30643,80176
5.31273,65986
5.31905,61423
5.32535,54031
5.33167,53742
5.33797,53827
5.34428,50500
5.3506,51289
5.3569,56952
5.36322,63263
5.36952,68086
5.37583,71433
5.38213,69140
5.38845,70307
5.39475,63314
5.40107,64811
5.40737,61984
5.41368,65537
5.41998,65679
5.4263,61608
5.4326,55947
5.43892,56986
5.44522,62324
5.45153,64701
5.45783,64197
5.46415,72810
5.47045,77699
5.47677,77467
5.48307,80704
5.48938,75075
5.49568,69295
5.502,63503
5.5083,64494
5.51462,51942
5.52093,58549
5.52723,48247
5.53355,56303
5.53985,56440
5.54617,48607
5.55247,54924
5.55878,52618
5.56508,51862
5.5714,46860
5.5777,44707
5.58402,46103
5.59032,45632
5.59663,45064
5.60293,48170
5.60925,46327
5.61555,44638
5.62187,44707
5.62817,47420
5.63448,45938
5.64078,44450
5.6471,44252
5.6534,43811
5.65972,44179
5.66602,42257
5.67233,43049
5.67863,42344
5.68495,43684
5.69127,43088
5.69757,39712
5.70388,41624
5.71018,40636
5.7165,42171
5.7228,40729
5.72912,42047
5.73542,41806
5.74173,40616
5.74803,40729
5.75435,43303
5.76065,41553
5.76697,41057
5.77327,42264
5.77958,43555
5.78588,45144
5.7922,46408
5.7985,46017
5.80482,45930
5.81112,43886
5.81743,43423
5.82373,43260
5.83005,40107
5.83635,41601
5.84267,42421
5.84897,39349
5.85528,40127
5.8616,38918
5.8679,36480
5.87422,38537
5.88052,39757
5.88683,40790
5.89313,37412
5.89945,38952
5.90575,38761
5.91207,37105
5.91837,38096
5.92468,40462
5.93098,37638
5.9373,38934
5.9436,39037
5.94992,39320
5.95622,39875
5.96253,43635
5.96883,53036
5.97515,59203
5.98145,62158
5.98777,58853
5.99407,47694
6.00038,45071
6.00668,39807
6.013,37988
6.0193,36574
6.02562,36857
6.03192,35893
6.03823,38297
6.04455,39441
6.05085,39161
6.05717,35058
6.06347,33758
6.06978,36232
6.07608,38743
6.0824,33900
6.0887,36430
6.09502,37353
6.10132,34335
6.10763,35423
6.11393,35078
6.12025,36487
6.12655,36668
6.13287,34808
6.13917,35842
6.14548,37371
6.15178,36537
6.1581,33854
6.1644,37422
6.17072,36160
6.17702,34631
6.18333,33934
6.18963,35658
6.19595,38350
6.20225,38173
6.20857,39905
6.21488,45122
6.22118,51150
6.2275,58584
6.2338,58110
6.24012,52617
6.24642,48595
6.25273,41781
6.25903,38630
6.26535,35879
6.27165,34848
6.27797,35577
6.28427,39672
6.29058,38391
6.29688,40900
6.3032,39925
6.3095,40066
6.31582,38822
6.32212,34875
6.32843,35262
6.33473,34355
6.34105,34782
6.34735,32462
6.35367,35946
6.35997,34399
6.36628,32727
6.37258,33163
6.3789,33455
6.38522,32513
6.39152,32825
6.39783,31537
6.40413,31420
6.41045,30394
6.41675,30505
6.42307,30355
6.42937,31070
6.43568,31712
6.44198,31358
6.4483,32008
6.4546,31389
6.46092,32770
6.46722,32299
6.47353,32011
6.47983,34319
6.48615,33270
6.49245,31571
6.49877,31114
6.50507,29906
6.51138,31558
6.51768,32684
6.524,33034
6.5303,33411
6.53662,34779
6.54292,36992
6.54923,39995
6.55555,46487
6.56185,48178
6.56817,44278
6.57447,42088
6.58078,38530
6.58708,38572
6.5934,39915
6.5997,39886
6.60602,39104
6.61232,37417
6.61863,36862
6.62493,33552
6.63125,31896
6.63755,30222
6.64387,31653
6.65017,31787
6.65648,32502
6.66278,33568
6.6691,35349
6.6754,34213
6.68172,34005
6.68802,34921
6.69433,37735
6.70063,45511
6.70695,58530
6.71325,82920
6.71957,117645
6.72588,171623
6.73218,222543
6.7385,292136
6.7448,351833
6.75112,407319
6.75742,454646
6.76373,502063
6.77003,536165
6.77635,585425
6.78265,611144
6.78897,652087
6.79527,693999
6.80158,723221
6.80788,758118
6.8142,791243
6.8205,811418
6.82682,838794
6.83312,899970
6.83943,928308
6.84573,973677
6.85205,986622
6.85835,1012447
6.86467,1049334
6.87097,1068231
6.87728,1135664
6.88358,1164089
6.8899,1196421
6.8962,1253474
6.90252,1341755
6.90883,1373587
6.91513,1405200
6.92145,1448287
6.92775,1523589
6.93407,1564741
6.94037,1592882
6.94668,1646769
6.95298,1705145
6.9593,1766710
6.9656,1809659
6.97192,1861400
6.97822,1872250
6.98453,1950122
6.99083,2084207
6.99715,2185785
7.00345,2288735
7.00977,2356666
7.01607,2425657
7.02238,2506481
7.02868,2561904
7.035,2598121
7.0413,2643861
7.04762,2737206
7.05392,2850133
7.06023,2946047
7.06653,3174931
7.07285,3319604
7.07917,3507466
7.08547,3721503
7.09178,4018288
7.09808,4252989
7.1044,4536525
7.1107,4784982
7.11702,5040644
7.12332,5404022
7.12963,5707997
7.13593,5971142
7.14225,6222688
7.14855,6553606
7.15487,6784584
7.16117,7071835
7.16748,7373701
7.17378,7728247
7.1801,8087113
7.1864,8327370
7.19272,8537284
7.19902,8821897
7.20533,9162302
7.21163,9279871
7.21795,9700461
7.22425,9973135
7.23057,5080011
7.23687,910850
7.24318,824363
7.2495,855792
7.2558,897154
7.26212,911500
7.26842,943006
7.27473,965925
7.28103,983445
7.28735,1025564
7.29365,1073591
7.29997,1117338
7.30627,1184883
7.31258,1286249
7.31888,1388124
7.3252,1492953
7.3315,1672850
7.33782,1856095
7.34412,2026092
7.35043,2208475
7.35673,2425698
7.36305,2632430
7.36935,2811995
7.37567,3003095
7.38197,3236770
7.38828,3457013
7.39458,3612274
7.4009,3852298
7.4072,4051038
7.41352,4258569
7.41983,4419057
7.42613,4616391
7.43245,4758851
7.43875,4593873
7.44507,4113535
7.45137,2559136
7.45768,2219881
7.46398,1677082
7.4703,795458
7.4766,350934
7.48292,243120
7.48922,202893
7.49553,157741
7.50183,133872
7.50815,120218
7.51445,113751
7.52077,116813
7.52707,110155
7.53338,103426
7.53968,101393
7.546,101864
7.5523,97493
7.55862,99662
7.56492,95004
7.57123,94872
7.57753,96961
7.58385,92080
7.59017,90150
7.59647,90190
7.60278,91780
7.60908,88845
7.6154,89111
7.6217,88994
7.62802,91559
7.63432,99302
7.64063,109530
7.64693,111331
7.65325,102017
7.65955,94913
7.66587,87433
7.67217,83267
7.67848,78908
7.68478,77933
7.6911,74711
7.6974,74400
7.70372,75529
7.71002,73790
7.71633,73238
7.72263,77448
7.72895,75746
7.73525,78675
7.74157,80039
7.74787,73411
7.75418,69129
7.76048,70660
7.7668,65957
7.77312,67471
7.77942,63811
7.78573,65696
7.79203,65626
7.79835,67374
7.80465,63651
7.81097,66574
7.81727,60452
7.82358,60507
7.82988,60560
7.8362,59552
7.8425,57878
7.84882,59056
7.85512,60147
7.86143,58539
7.86773,59031
7.87405,62677
7.88035,57880
7.88667,60368
7.89297,57581
7.89928,57355
7.90558,55859
7.9119,56921
7.9182,56353
7.92452,54592
7.93082,54560
7.93713,53334
7.94345,54119
7.94975,55237
7.95607,53078
7.96237,53269
7.96868,53675
7.97498,54780
7.9813,55078
7.9876,55287
7.99392,54399
8.00022,51819
8.00653,49273
8.01283,51747
8.01915,50454
8.02545,50123
8.03177,52521
8.03807,52338
8.04438,52453
8.05068,51425
8.057,53076
8.0633,51131
8.06962,52781
8.07592,55765
8.08223,51319
8.08853,51378
8.09485,53578
8.10115,51338
8.10747,50114
8.11378,48717
8.12008,50329
8.1264,49384
8.1327,49787
8.13902,50207
8.14532,48483
8.15163,49683
8.15793,47712
8.16425,51431
8.17055,53717
8.17687,55193
8.18317,58242
8.18948,61911
8.19578,62088
8.2021,58234
8.2084,59499
8.21472,61488
8.22102,61904
8.22733,63576
8.23363,57708
8.23995,53154
8.24625,48436
8.25257,49739
8.25887,45296
8.26518,46417
8.27148,46919
8.2778,46228
8.28412,44815
8.29042,47322
8.29673,44238
8.30303,46179
8.30935,46415
8.31565,45693
8.32197,44078
8.32827,41571
8.33458,44400
8.34088,44571
8.3472,42545
8.3535,44315
8.35982,42334
8.36612,43424
8.37243,41165
8.37873,42320
8.38505,43171
8.39135,40913
8.39767,41469
8.40397,43012
8.41028,40623
8.41658,43469
8.4229,42678
8.4292,41988
8.43552,42809
8.44182,42019
8.44813,42607
8.45445,39250
8.46075,41901
8.46707,42523
8.47337,42355
8.47968,44044
8.48598,44001
8.4923,40739
8.4986,40068
8.50492,40101
8.51122,39913
8.51753,39928
8.52383,41018
8.53015,41025
8.53645,41877
8.54277,41867
8.54907,42098
8.55538,38460
8.56168,39168
8.568,38307
8.5743,38609
8.58062,40172
8.58692,40348
8.59323,38634
8.59953,39396
8.60585,36948
8.61215,39496
8.61847,35845
8.62477,37798
8.63108,41022
8.6374,37510
8.6437,37086
8.65002,35700
8.65632,36727
8.66263,38117
8.66893,37492
8.67525,38961
8.68155,36780
8.68787,36277
8.69417,36886
8.70048,37759
8.70678,37513
8.7131,38371
8.7194,36854
8.72572,42439
8.73202,44924
8.73833,49264
8.74463,51037
8.75095,52008
8.75725,51707
8.76357,46950
8.76987,42543
8.77618,41148
8.78248,35924
8.7888,37794
8.7951,36943
8.80142,37016
8.80773,35856
8.81403,37512
8.82035,41862
8.82665,43719
8.83297,46586
8.83927,46423
8.84558,49916
8.85188,47090
8.8582,41242
8.8645,41952
8.87082,38892
8.87712,38905
8.88343,37695
8.88973,35061
8.89605,34808
8.90235,36582
8.90867,38908
8.91497,40633
8.92128,41336
8.92758,41937
8.9339,42484
8.9402,39106
8.94652,37867
8.95282,35819
8.95913,34692
8.96543,33923
8.97175,33189
8.97807,34815
8.98437,35402
8.99068,34530
8.99698,36562
9.0033,33682
9.0096,36959
9.01592,35561
9.02222,35688
9.02853,34517
9.03483,34044
9.04115,33951
9.04745,34105
9.05377,32685
9.06007,33654
9.06638,32378
9.07268,35016
9.079,33112
9.0853,34330
9.09162,34903
9.09792,32285
9.10423,33146
9.11053,33675
9.11685,31828
9.12315,31580
9.12947,32046
9.13577,33577
9.14208,32077
9.1484,32683
9.1547,32214
9.16102,32592
9.16732,29395
9.17363,31054
9.17993,30628
9.18625,31315
9.19255,32884
9.19887,30061
9.20517,35244
9.21148,31446
9.21778,34079
9.2241,37744
9.2304,39851
9.23672,41239
9.24302,42297
9.24933,41588
9.25563,42554
9.26195,37624
9.26825,40122
9.27457,39021
9.28087,39253
9.28718,42455
9.29348,46986
9.2998,62879
9.3061,98867
9.31242,139291
9.31873,191442
9.32503,235241
9.33135,236478
9.33765,196472
9.34397,150662
9.35027,99460
9.35658,67511
9.36288,48566
9.3692,41913
9.3755,36722
9.38182,35379
9.38812,34367
9.39443,32085
9.40073,33304
9.40705,32423
9.41335,29717
9.41967,29915
9.42597,31864
9.43228,32094
9.43858,32438
9.4449,31399
9.4512,30097
9.45752,29775
9.46382,32419
9.47013,30761
9.47643,31636
9.48275,32067
9.48905,33935
9.49537,33095
9.50168,35427
9.50798,30636
9.5143,32349
9.5206,30496
9.52692,32774
9.53322,31231
9.53953,31802
9.54583,30148
9.55215,30151
9.55845,29895
9.56477,30614
9.57107,29444
9.57738,27866
9.58368,28915
9.59,29796
9.5963,28734
9.60262,27732
9.60892,29036
9.61523,28327
9.62153,27475
9.62785,28729
9.63415,28028
9.64047,30310
9.64677,29225
9.65308,26244
9.65938,29208
9.6657,29950
9.67202,29351
9.67832,28929
9.68463,28402
9.69093,31433
9.69725,32216
9.70355,33617
9.70987,32196
9.71617,31313
9.72248,31733
9.72878,32596
9.7351,31130
9.7414,31718
9.74772,30146
9.75402,30922
9.76033,32049
9.76663,28929
9.77295,28584
9.77925,29545
9.78557,26931
9.79187,27422
9.79818,29914
9.80448,33258
9.8108,33576
9.8171,34584
9.82342,31550
9.82972,31266
9.83603,28878
9.84235,28683
9.84865,27451
9.85497,28923
9.86127,27839
9.86758,26582
9.87388,26572
9.8802,25657
9.8865,26765
9.89282,28347
9.89912,26069
9.90543,26567
9.91173,27894
9.91805,27201
9.92435,27542
9.93067,30531
9.93697,31647
9.94328,32174
9.94958,32917
9.9559,30257
9.9622,29358
9.96852,29855
9.97482,27749
9.98113,31710
9.98743,36136
9.99375,47742
10.0001,62226
10.0064,77902
10.0127,99560
10.019,101710
10.0253,90778
10.0316,77602
10.0379,56772
10.0442,42761
10.0505,36699
10.0568,31130
10.0632,27602
10.0695,28262
10.0758,28340
10.0821,26864
10.0884,27753
10.0947,27463
10.101,27179
10.1073,27788
10.1136,27151
10.1199,26026
10.1262,27418
10.1325,29309
10.1389,25285
10.1452,26526
10.1515,24918
10.1578,25879
10.1641,23902
10.1704,24848
10.1767,24303
10.183,25350
10.1893,24268
10.1956,24862
10.2019,26440
10.2083,24958
10.2146,26185
10.2209,25896
10.2272,25167
10.2335,24144
10.2398,24690
10.2461,23006
10.2524,23142
10.2587,25209
10.265,24511
10.2713,23957
10.2776,26847
10.284,25051
10.2903,26446
10.2966,25609
10.3029,27953
10.3092,32590
10.3155,36332
10.3218,38779
10.3281,53543
10.3344,85184
10.3407,77849
10.347,101016
10.3533,71613
10.3597,73324
10.366,46843
10.3723,40196
10.3786,31926
10.3849,29920
10.3912,29012
10.3975,26926
10.4038,25723
10.4101,26738
10.4164,25681
10.4227,23953
10.4291,26432
10.4354,26399
10.4417,27521
10.448,27728
10.4543,25749
10.4606,24970
10.4669,24610
10.4732,24829
10.4795,23994
10.4858,25474
10.4921,25393
10.4984,23561
10.5048,25553
10.5111,23921
10.5174,22515
10.5237,25503
10.53,23845
10.5363,24646
10.5426,24300
10.5489,24483
10.5552,25925
10.5615,24890
10.5678,24708
10.5742,22952
10.5805,22808
10.5868,25674
10.5931,24378
10.5994,26616
10.6057,23949
10.612,25134
10.6183,25358
10.6246,26253
10.6309,26201
10.6372,24526
10.6435,25959
10.6499,23619
10.6562,25492
10.6625,28227
10.6688,27526
10.6751,28942
10.6814,31903
10.6877,33704
10.694,35590
10.7003,36182
10.7066,37022
10.7129,38496
10.7193,40577
10.7256,45486
10.7319,56413
10.7382,84639
10.7445,140731
10.7508,226077
10.7571,348161
10.7634,450798
10.7697,517291
10.776,503072
10.7823,411554
10.7886,281139
10.795,177777
10.8013,104881
10.8076,71979
10.8139,50747
10.8202,39698
10.8265,38681
10.8328,35487
10.8391,36023
10.8454,36288
10.8517,36208
10.858,38513
10.8643,39990
10.8707,41548
10.877,43209
10.8833,38900
10.8896,36948
10.8959,33561
10.9022,33822
10.9085,32898
10.9148,30597
10.9211,30967
10.9274,30822
10.9337,29856
10.9401,28379
10.9464,26743
10.9527,26511
10.959,26788
10.9653,25336
10.9716,27269
10.9779,25823
10.9842,27058
10.9905,24561
10.9968,23264
11.0031,23334
11.0094,21899
11.0158,24536
11.0221,23588
11.0284,22993
11.0347,24624
11.041,23918
11.0473,23954
11.0536,25578
11.0599,24212
11.0662,27264
11.0725,25458
11.0788,24759
11.0852,24961
11.0915,24735
11.0978,24153
11.1041,25573
11.1104,25226
11.1167,24424
11.123,23864
11.1293,23359
11.1356,22313
11.1419,22129
11.1482,21686
11.1545,21164
11.1609,22063
11.1672,20928
11.1735,22404
11.1798,21956
11.1861,23696
11.1924,22474
11.1987,20231
11.205,21435
11.2113,21941
11.2176,20042
11.2239,20426
11.2303,22060
11.2366,19848
11.2429,23577
11.2492,20939
11.2555,22492
11.2618,22407
11.2681,21235
11.2744,21139
11.2807,18093
11.287,22533
11.2933,20656
11.2996,20664
11.306,18469
11.3123,20737
11.3186,18960
11.3249,20735
11.3312,18622
11.3375,19497
11.3438,19898
11.3501,20913
11.3564,21408
11.3627,20064
11.369,19321
11.3753,20169
11.3817,19949
11.388,19733
11.3943,21462
11.4006,20183
11.4069,18178
11.4132,19431
11.4195,19086
11.4258,20097
11.4321,19792
11.4384,19705
11.4447,18765
11.4511,20136
11.4574,18992
11.4637,19096
11.47,19190
11.4763,19171
11.4826,17845
11.4889,17833
11.4952,17746
11.5015,19799
11.5078,18433
11.5141,17932
11.5204,19880
11.5268,19093
11.5331,22447
11.5394,20114
11.5457,21206
11.552,22228
11.5583,23186
11.5646,20720
11.5709,22115
11.5772,24082
11.5835,25504
11.5898,30817
11.5962,31170
11.6025,33084
11.6088,32746
11.6151,31470
11.6214,26788
11.6277,26602
11.634,26807
11.6403,31665
11.6466,35949
11.6529,35320
11.6592,38853
11.6655,35090
11.6719,32072
11.6782,27752
11.6845,25200
11.6908,22428
11.6971,22571
11.7034,20883
11.7097,18323
11.716,21209
11.7223,22607
11.7286,24889
11.7349,32482
11.7413,31905
11.7476,35866
11.7539,35727
11.7602,33566
11.7665,31042
11.7728,25819
11.7791,24064
11.7854,21031
11.7917,19071
11.798,19106
11.8043,18586
11.8106,18281
11.817,18522
11.8233,18475
11.8296,18025
11.8359,17492
11.8422,20219
11.8485,19566
11.8548,17717
11.8611,17802
11.8674,18104
11.8737,18455
11.88,16344
11.8863,16021
11.8927,17364
11.899,17134
11.9053,16375
11.9116,17039
11.9179,17134
11.9242,17023
11.9305,16577
11.9368,16083
11.9431,16775
11.9494,17605
11.9557,16486
11.9621,19089
11.9684,17218
11.9747,18721
11.981,20395
11.9873,21681
11.9936,25921
11.9999,28191
12.0062,29131
12.0125,27918
12.0188,26528
12.0251,22957
12.0314,19864
12.0378,20776
12.0441,17836
12.0504,17084
12.0567,16487
12.063,17958
12.0693,16528
12.0756,16990
12.0819,15869
12.0882,15604
12.0945,16041
12.1008,16646
12.1072,16333
12.1135,17397
12.1198,15783
12.1261,16530
12.1324,14230
12.1387,16235
12.145,14912
12.1513,16995
12.1576,16292
12.1639,14785
12.1702,15516
12.1765,15438
12.1829,15659
12.1892,15713
12.1955,15414
12.2018,16006
12.2081,15279
12.2144,16163
12.2207,14152
12.227,14825
12.2333,14387
12.2396,14871
12.2459,16514
12.2522,15254
12.2586,15433
12.2649,13767
12.2712,16075
12.2775,15523
12.2838,17261
12.2901,14575
12.2964,16450
12.3027,15443
12.309,15732
12.3153,14912
12.3216,15479
12.328,16771
12.3343,14192
12.3406,14824
12.3469,14366
12.3532,15372
12.3595,16760
12.3658,16423
12.3721,15402
12.3784,14603
12.3847,13380
12.391,15241
12.3973,13619
12.4037,16030
12.41,14274
12.4163,15581
12.4226,14522
12.4289,15173
12.4352,14746
12.4415,13931
12.4478,15151
12.4541,15952
12.4604,14585
12.4667,14682
12.4731,13669
12.4794,14095
12.4857,14213
12.492,13028
12.4983,14295
12.5046,13830
12.5109,15164
12.5172,14135
12.5235,13825
12.5298,14953
12.5361,14683
12.5424,16380
12.5488,13646
12.5551,14412
12.5614,14343
12.5677,14511
12.574,15163
12.5803,13967
12.5866,16206
12.5929,14569
12.5992,14880
12.6055,14429
12.6118,13621
12.6182,15234
12.6245,14895
12.6308,15698
12.6371,16947
12.6434,15789
12.6497,14392
12.656,16142
12.6623,15360
12.6686,15031
12.6749,14395
12.6812,13667
12.6875,13955
12.6939,14850
12.7002,15490
12.7065,17368
12.7128,17198
12.7191,16548
12.7254,16374
12.7317,16010
12.738,16124
12.7443,15626
12.7506,15218
12.7569,13328
12.7632,13530
12.7696,14165
12.7759,14400
12.7822,13909
12.7885,14246
12.7948,12318
12.8011,14278
12.8074,12567
12.8137,13504
12.82,15609
12.8263,14342
12.8326,11273
12.839,13882
12.8453,14385
12.8516,14729
12.8579,14231
12.8642,13121
12.8705,14399
12.8768,14363
12.8831,14786
12.8894,14788
12.8957,12868
12.902,13404
12.9083,12463
12.9147,13178
12.921,14471
12.9273,12874
12.9336,11225
12.9399,13905
12.9462,12822
12.9525,13488
12.9588,11806
12.9651,12729
12.9714,13417
12.9777,13030
12.9841,13843
12.9904,13346
12.9967,13264
13.003,14373
13.0093,12726
13.0156,12735
13.0219,14372
13.0282,12939
13.0345,14062
13.0408,13113
13.0471,12772
13.0534,13369
13.0598,13118
13.0661,12445
13.0724,13293
13.0787,11985
13.085,11839
13.0913,12707
13.0976,13012
13.1039,14069
13.1102,12950
13.1165,12298
13.1228,12383
13.1292,12792
13.1355,11715
13.1418,13247
13.1481,11568
13.1544,12945
13.1607,12115
13.167,13877
13.1733,12954
13.1796,12835
13.1859,13070
13.1922,14840
13.1985,14428
13.2049,14340
13.2112,15656
13.2175,14418
13.2238,16071
13.2301,13922
13.2364,13739
13.2427,14248
13.249,13165
13.2553,14132
13.2616,13177
13.2679,13182
13.2742,14880
13.2806,12121
13.2869,14196
13.2932,14154
13.2995,14335
13.3058,14099
13.3121,12346
13.3184,12565
13.3247,12875
13.331,12536
13.3373,12873
13.3436,12118
13.35,12778
13.3563,13183
13.3626,14264
13.3689,13626
13.3752,11881
13.3815,11997
13.3878,12102
13.3941,12533
13.4004,12244
13.4067,13713
13.413,12361
13.4193,13657
13.4257,13008
13.432,12409
13.4383,13186
13.4446,14299
13.4509,12479
13.4572,11717
13.4635,13395
13.4698,14148
13.4761,13108
13.4824,12056
13.4887,13639
13.4951,13791
13.5014,12504
13.5077,10937
13.514,11075
13.5203,11224
13.5266,11287
13.5329,11538
13.5392,12054
13.5455,13104
13.5518,13005
13.5581,11063
13.5644,13629
13.5708,12705
13.5771,11514
13.5834,12148
13.5897,11425
13.596,12968
13.6023,11394
13.6086,12027
13.6149,12799
13.6212,12052
13.6275,12577
13.6338,14197
13.6402,10653
13.6465,11118
13.6528,13191
13.6591,9965
13.6654,11313
13.6717,12049
13.678,11361
13.6843,10595
13.6906,11225
13.6969,11623
13.7032,12724
13.7095,12681
13.7159,14671
13.7222,15409
13.7285,16792
13.7348,17845
13.7411,17373
13.7474,17136
13.7537,16178
13.76,14699
13.7663,13752
13.7726,12918
13.7789,12365
13.7852,13228
13.7916,11322
13.7979,11471
13.8042,12409
13.8105,12726
13.8168,11024
13.8231,11925
13.8294,13253
13.8357,14275
13.842,12113
13.8483,12698
13.8546,11940
13.861,10800
13.8673,12501
13.8736,12577
13.8799,11661
13.8862,12625
13.8925,14232
13.8988,11828
13.9051,13797
13.9114,14468
13.9177,16116
13.924,16922
13.9303,15681
13.9367,15797
13.943,14922
13.9493,14169
13.9556,14158
13.9619,12779
13.9682,12351
13.9745,11343
13.9808,12947
13.9871,12690
13.9934,11787
13.9997,12014
14.0061,12474
14.0124,12945
14.0187,11740
14.025,11024
14.0313,12926
14.0376,12979
14.0439,11139
14.0502,11522
14.0565,11093
14.0628,9638
14.0691,10800
14.0754,10641
14.0818,10391
14.0881,11474
14.0944,12343
14.1007,12326
14.107,12796
14.1133,11097
14.1196,10781
14.1259,12608
14.1322,12267
14.1385,12340
14.1448,11084
14.1511,11358
14.1575,10774
14.1638,12593
14.1701,12831
14.1764,10754
14.1827,10945
14.189,11721
14.1953,11892
14.2016,11700
14.2079,11240
14.2142,12719
14.2205,12405
14.2269,10362
14.2332,11943
14.2395,11920
14.2458,11279
14.2521,10820
14.2584,13508
14.2647,13226
14.271,12231
14.2773,12808
14.2836,11829
14.2899,11606
14.2962,11814
14.3026,11858
14.3089,10946
14.3152,11894
14.3215,11364
14.3278,11584
14.3341,10612
14.3404,11682
14.3467,11271
14.353,11939
14.3593,12452
14.3656,12833
14.372,11557
14.3783,12270
14.3846,11563
14.3909,12184
14.3972,10708
14.4035,11433
14.4098,12118
14.4161,11992
14.4224,12112
14.4287,11912
14.435,12518
14.4413,12112
14.4477,11762
14.454,12127
14.4603,13425
14.4666,12863
14.4729,11611
14.4792,11730
14.4855,11800
14.4918,11311
14.4981,11319
14.5044,12478
14.5107,10225
14.5171,10492
14.5234,10964
14.5297,11188
14.536,12074
14.5423,11493
14.5486,12270
14.5549,12947
14.5612,10291
14.5675,10997
14.5738,12754
14.5801,11886
14.5864,13252
14.5928,12138
14.5991,13554
14.6054,12421
14.6117,12803
14.618,12702
14.6243,14191
14.6306,12302
14.6369,10982
14.6432,12532
14.6495,13224
14.6558,13072
14.6621,10653
14.6685,12596
14.6748,12647
14.6811,12024
14.6874,12341
14.6937,12591
14.7,11563
14.7063,11689
14.7126,12703
14.7189,10962
14.7252,13361
14.7315,13869
14.7379,12979
14.7442,12403
14.7505,13619
14.7568,12895
14.7631,11942
14.7694,14262
14.7757,13251
14.782,13559
14.7883,13431
14.7946,14073
14.8009,13886
14.8072,13364
14.8136,15072
14.8199,13650
14.8262,13228
14.8325,13035
14.8388,12618
14.8451,12284
14.8514,12213
14.8577,12141
14.864,12485
14.8703,14655
14.8766,13571
14.883,15507
14.8893,16067
14.8956,14284
14.9019,14910
14.9082,12804
14.9145,13519
14.9208,14285
14.9271,14081
14.9334,12058
14.9397,12396
14.946,12973
14.9523,11663
14.9587,11961
14.965,10752
14.9713,12890
14.9776,11673
14.9839,12002
14.9902,11571
14.9965,11335
15.0028,11956
15.0091,13274
15.0154,12402
15.0217,11882
15.0281,12448
15.0344,12496
15.0407,11091
15.047,10463
15.0533,11198
15.0596,11245
15.0659,10936
15.0722,11964
15.0785,13507
15.0848,12282
15.0911,13050
15.0974,12200
15.1038,13364
15.1101,12104
15.1164,12370
15.1227,12686
15.129,12751
15.1353,12045
15.1416,13514
15.1479,14679
15.1542,14165
15.1605,14317
15.1668,14516
15.1731,13436
15.1795,15408
15.1858,14475
15.1921,14662
15.1984,13470
15.2047,14163
15.211,13940
15.2173,12051
15.2236,13140
15.2299,13452
15.2362,13540
15.2425,14192
15.2489,12296
15.2552,13984
15.2615,16155
15.2678,15641
15.2741,16947
15.2804,17563
15.2867,18207
15.293,15676
15.2993,14907
15.3056,14934
15.3119,13811
15.3182,12275
15.3246,13178
15.3309,13483
15.3372,11841
15.3435,12697
15.3498,12147
15.3561,13620
15.3624,13489
15.3687,14173
15.375,15016
15.3813,13113
15.3876,15698
15.394,14073
15.4003,14764
15.4066,14226
15.4129,13259
15.4192,13190
15.4255,12662
15.4318,14949
15.4381,14959
15.4444,17889
15.4507,22875
15.457,29959
15.4633,41902
15.4697,56347
15.476,77005
15.4823,106556
15.4886,130056
15.4949,143944
15.5012,152792
15.5075,140255
15.5138,119522
15.5201,92981
15.5264,74511
15.5327,56696
15.5391,44630
15.5454,36032
15.5517,29502
15.558,25715
15.5643,20767
15.5706,21291
15.5769,19626
15.5832,19122
15.5895,18041
15.5958,16490
15.6021,16980
15.6084,17620
15.6148,16199
15.6211,15509
15.6274,15122
15.6337,15511
15.64,14857
15.6463,11782
15.6526,14233
15.6589,12100
15.6652,13039
15.6715,12820
15.6778,13120
15.6841,14418
15.6905,12708
15.6968,14195
15.7031,15068
15.7094,14543
15.7157,14732
15.722,15211
15.7283,14627
15.7346,15176
15.7409,14793
15.7472,15132
15.7535,14445
15.7599,13277
15.7662,14136
15.7725,13347
15.7788,11229
15.7851,12376
15.7914,11652
15.7977,11403
15.804,11768
15.8103,11823
15.8166,12611
15.8229,12176
15.8292,13455
15.8356,12097
15.8419,14567
15.8482,14318
15.8545,13127
15.8608,15404
15.8671,19017
15.8734,18566
15.8797,19506
15.886,21087
15.8923,21108
15.8986,21970
15.905,22872
15.9113,21668
15.9176,20164
15.9239,21783
15.9302,18329
15.9365,16989
15.9428,16701
15.9491,16899
15.9554,18002
15.9617,18132
15.968,18442
15.9743,17986
15.9807,18187
15.987,17915
15.9933,14976
15.9996,14665
16.0059,16132
16.0122,13908
16.0185,12682
16.0248,12172
16.0311,11139
16.0374,12547
16.0437,11388
16.05,11194
16.0563,11994
16.0627,12531
16.069,10973
16.0753,11142
16.0816,11529
16.0879,10412
16.0942,11434
16.1005,9688
16.1068,10241
16.1131,10080
16.1194,10901
16.1258,10826
16.1321,9537
16.1384,10938
16.1447,12230
16.151,12317
16.1573,11548
16.1636,12338
16.1699,11656
16.1762,13095
16.1825,11125
16.1888,12388
16.1951,11904
16.2015,12063
16.2078,11745
16.2141,12228
16.2204,14415
16.2267,11868
16.233,10296
16.2393,11566
16.2456,13678
16.2519,11365
16.2582,11680
16.2645,13688
16.2708,12663
16.2771,13415
16.2835,12201
16.2898,12637
16.2961,11859
16.3024,13144
16.3087,13515
16.315,11907
16.3213,9740
16.3276,10916
16.3339,11196
16.3402,11873
16.3466,11353
16.3529,10631
16.3592,11519
16.3655,11243
16.3718,12074
16.3781,10180
16.3844,12921
16.3907,10738
16.397,12103
16.4033,14164
16.4096,14469
16.4159,13769
16.4222,12673
16.4286,11311
16.4349,10643
16.4412,9452
16.4475,10021
16.4538,9801
16.4601,11605
16.4664,10183
16.4727,10192
16.479,11224
16.4853,9602
16.4917,9162
16.4979,9795
16.5043,10304
16.5106,9979
16.5169,9319
16.5232,10374
16.5295,10156
16.5358,9665
16.5421,10126
16.5484,8927
16.5547,11140
16.561,10152
16.5674,10909
16.5737,10189
16.58,10762
16.5863,8065
16.5926,8808
16.5989,11423
16.6052,9717
16.6115,10612
16.6178,11257
16.6241,10523
16.6304,9743
16.6367,10594
16.643,9974
16.6494,11287
16.6557,10037
16.662,10427
16.6683,9428
16.6746,9977
16.6809,10396
16.6872,11083
16.6935,10850
16.6998,12912
16.7061,11323
16.7125,12855
16.7188,11751
16.7251,13204
16.7314,13672
16.7377,13980
16.744,12786
16.7503,14153
16.7566,15803
16.7629,13125
16.7692,13838
16.7755,12184
16.7818,12730
16.7882,13141
16.7945,11951
16.8008,10610
16.8071,12550
16.8134,11751
16.8197,10697
16.826,11112
16.8323,12986
16.8386,12271
16.8449,10868
16.8512,10806
16.8576,11464
16.8638,11712
16.8702,9511
16.8765,10441
16.8828,11346
16.8891,10566
16.8954,10275
16.9017,10412
16.908,10011
16.9143,10157
16.9206,10193
16.927,9784
16.9333,9804
16.9396,8879
16.9459,8913
16.9522,9511
16.9585,9908
16.9648,11734
16.9711,10325
16.9774,11625
16.9837,11010
16.99,9637
16.9963,10214
17.0026,10020
17.0089,10923
17.0153,11924
17.0216,10961
17.0279,10770
17.0342,12298
17.0405,10845
17.0468,11168
17.0531,12250
17.0594,12320
17.0657,12326
17.072,12759
17.0784,12078
17.0847,10860
17.091,11344
17.0973,10294
17.1036,11293
17.1099,11433
17.1162,10423
17.1225,10577
17.1288,10719
17.1351,9447
17.1414,11601
17.1477,11033
17.1541,11035
17.1604,10203
17.1667,10801
17.173,11406
17.1793,10111
17.1856,9898
17.1919,9985
17.1982,9547
17.2045,10768
17.2108,10133
17.2171,11637
17.2235,9792
17.2297,9487
17.2361,10925
17.2424,10406
17.2487,10163
17.255,10717
17.2613,9004
17.2676,10166
17.2739,9760
17.2802,12292
17.2865,10083
17.2929,9704
17.2992,9686
17.3055,8614
17.3118,10354
17.3181,11144
17.3244,10693
17.3307,8555
17.337,10002
17.3433,10059
17.3496,10355
17.3559,9939
17.3622,8994
17.3686,11882
17.3748,9525
17.3812,9260
17.3875,9574
17.3938,9085
17.4001,9872
17.4064,10426
17.4127,9972
17.419,9658
17.4253,10215
17.4316,10869
17.4379,10766
17.4443,10381
17.4506,9992
17.4569,10050
17.4632,10907
17.4695,9598
17.4758,10779
17.4821,11073
17.4884,10521
17.4947,11712
17.501,10415
17.5073,10314
17.5137,11243
17.52,10244
17.5263,9754
17.5326,10302
17.5389,10410
17.5452,11237
17.5515,10457
17.5578,11200
17.5641,10117
17.5704,10027
17.5767,10764
17.583,9973
17.5894,9693
17.5956,9860
17.602,11329
17.6083,10890
17.6146,9498
17.6209,9779
17.6272,8978
17.6335,10460
17.6398,9360
17.6461,9922
17.6524,9658
17.6588,9957
17.6651,11117
17.6714,10614
17.6777,11677
17.684,10171
17.6903,9967
17.6966,9647
17.7029,10752
17.7092,11111
17.7155,10829
17.7218,11510
17.7281,11662
17.7345,11613
17.7408,11296
17.7471,9439
17.7534,10689
17.7597,10700
17.766,9146
17.7723,9832
17.7786,9683
17.7849,11238
17.7912,11365
17.7975,10393
17.8039,10859
17.8102,10503
17.8165,10226
17.8228,10344
17.8291,11297
17.8354,12402
17.8417,11557
17.848,13010
17.8543,14238
17.8606,13878
17.8669,16521
17.8732,16274
17.8796,16605
17.8859,17908
17.8922,15893
17.8985,15325
17.9048,14384
17.9111,12236
17.9174,12387
17.9237,10671
17.93,10841
17.9363,10155
17.9426,11268
17.9489,10338
17.9552,11302
17.9616,10392
17.9679,10314
17.9742,10850
17.9805,12236
17.9868,11380
17.9931,12193
17.9994,12353
18.0057,12181
18.012,12296
18.0183,13278
18.0247,13386
18.031,13216
18.0373,13198
18.0436,13176
18.0499,13768
18.0562,13802
18.0625,14108
18.0688,15074
18.0751,14259
18.0814,15825
18.0877,16850
18.094,15473
18.1004,17193
18.1067,17549
18.113,19371
18.1193,21893
18.1256,22150
18.1319,20396
18.1382,20221
18.1445,20613
18.1508,18420
18.1571,16068
18.1634,15913
18.1698,14135
18.1761,14686
18.1824,14308
18.1887,14454
18.195,14038
18.2013,13345
18.2076,13310
18.2139,12853
18.2202,12488
18.2265,14002
18.2328,13694
18.2391,14466
18.2455,12693
18.2518,12717
18.2581,11740
18.2644,12970
18.2707,12358
18.277,12845
18.2833,13011
18.2896,13731
18.2959,13197
18.3022,12358
18.3085,12581
18.3149,13003
18.3211,13723
18.3275,12720
18.3338,12589
18.3401,12468
18.3464,13934
18.3527,12536
18.359,12163
18.3653,13261
18.3716,13582
18.3779,15925
18.3842,15093
18.3906,13831
18.3969,14334
18.4032,13270
18.4095,12606
18.4158,13310
18.4221,14383
18.4284,14264
18.4347,12722
18.441,12962
18.4473,14959
18.4536,13637
18.4599,12619
18.4663,13761
18.4726,13401
18.4789,13153
18.4852,12861
18.4915,12785
18.4978,10884
18.5041,12946
18.5104,12453
18.5167,12360
18.523,13315
18.5293,12110
18.5357,12755
18.542,11415
18.5483,13104
18.5546,14342
18.5609,11306
18.5672,15057
18.5735,13868
18.5798,12226
18.5861,13747
18.5924,13405
18.5987,11936
18.605,13240
18.6114,12390
18.6177,12736
18.624,12745
18.6303,13446
18.6366,13481
18.6429,13393
18.6492,12914
18.6555,14364
18.6618,13695
18.6681,14163
18.6744,11791
18.6808,13300
18.687,13094
18.6934,13081
18.6997,13194
18.706,12189
18.7123,12623
18.7186,12102
18.7249,12548
18.7312,12745
18.7375,13993
18.7438,12199
18.7501,14214
18.7565,11990
18.7628,13558
18.7691,13457
18.7754,12436
18.7817,11483
18.788,12394
18.7943,13151
18.8006,12570
18.8069,12335
18.8132,13590
18.8195,13401
18.8259,12499
18.8322,14214
18.8385,13189
18.8448,14311
18.8511,14455
18.8574,15789
18.8637,18108
18.87,15774
18.8763,16684
18.8826,18252
18.8889,18224
18.8952,18176
18.9016,19475
18.9079,18778
18.9142,19207
18.9205,18273
18.9268,20005
18.9331,18410
18.9394,18818
18.9457,18733
18.952,19238
18.9583,18067
18.9646,18868
18.9709,17434
18.9773,16588
18.9836,17795
18.9899,16093
18.9962,16084
19.0025,16656
19.0088,16662
19.0151,15409
19.0214,14941
19.0277,16455
19.034,15529
19.0403,13051
19.0467,13807
19.0529,15866
19.0593,14502
19.0656,15303
19.0719,15291
19.0782,14617
19.0845,14859
19.0908,13579
19.0971,13598
19.1034,13864
19.1097,15988
19.116,14926
19.1224,15865
19.1287,15074
19.135,15611
19.1413,17973
19.1476,16427
19.1539,17547
19.1602,17900
19.1665,18708
19.1728,17464
19.1791,21332
19.1854,21693
19.1918,19258
19.1981,20422
19.2044,18843
19.2107,20055
19.217,18935
19.2233,19900
19.2296,20313
19.2359,19207
19.2422,18577
19.2485,18979
19.2548,17431
19.2611,18248
19.2675,17866
19.2738,15420
19.2801,15541
19.2864,16931
19.2927,16641
19.299,15115
19.3053,16702
19.3116,16818
19.3179,17017
19.3242,17591
19.3305,16316
19.3368,14870
19.3432,13692
19.3495,14321
19.3558,16469
19.3621,13869
19.3684,14694
19.3747,15039
19.381,14987
19.3873,15907
19.3936,15259
19.3999,16039
19.4062,15765
19.4126,17334
19.4189,17317
19.4252,17468
19.4315,20999
19.4378,19287
19.4441,21727
19.4504,21315
19.4567,19053
19.463,22147
19.4693,22360
19.4756,23626
19.4819,23686
19.4883,20486
19.4946,20695
19.5009,20624
19.5072,20423
19.5135,19257
19.5198,18148
19.5261,19544
19.5324,19634
19.5387,16376
19.545,16616
19.5513,16690
19.5577,15517
19.564,15894
19.5703,16197
19.5766,16003
19.5829,15428
19.5892,15444
19.5955,16078
19.6018,14450
19.6081,16011
19.6144,14677
19.6207,14565
19.627,16384
19.6334,16309
19.6397,14922
19.646,15949
19.6523,14655
19.6586,17521
19.6649,15718
19.6712,16275
19.6775,15875
19.6838,14107
19.6901,13874
19.6964,15309
19.7028,15022
19.7091,13924
19.7154,16275
19.7217,16196
19.728,16275
19.7343,15654
19.7406,16468
19.7469,16509
19.7532,17616
19.7595,19741
19.7658,19528
19.7721,17572
19.7784,20359
19.7848,20297
19.7911,21401
19.7974,22794
19.8037,20352
19.81,22197
19.8163,19603
19.8226,18769
19.8289,18125
19.8352,18270
19.8415,18148
19.8478,15730
19.8542,15007
19.8605,14814
19.8668,14962
19.8731,15150
19.8794,15032
19.8857,14268
19.892,15395
19.8983,16380
19.9046,15832
19.9109,14890
19.9172,14552
19.9236,14143
19.9299,15289
19.9362,15103
19.9425,15046
19.9488,14705
19.9551,16316
19.9614,16393
19.9677,15869
19.974,15955
19.9803,16984
19.9866,16264
19.9929,17537
19.9993,17440
20.0055,21028
20.0119,20937
20.0182,23747
20.0245,25263
20.0308,28487
20.0371,30746
20.0434,36290
20.0497,37752
20.056,37889
20.0623,41476
20.0687,42016
20.075,42949
20.0813,45344
20.0876,47089
20.0939,47177
20.1002,48047
20.1065,51106
20.1128,51304
20.1191,51165
20.1254,54804
20.1317,60627
20.138,64852
20.1443,69516
20.1507,75117
20.157,77236
20.1633,96111
20.1696,104591
20.1759,112593
20.1822,118297
20.1885,128069
20.1948,137514
20.2011,153203
20.2074,174276
20.2138,178030
20.2201,206868
20.2264,217056
20.2327,227232
20.239,248710
20.2453,271985
20.2516,300337
20.2579,286540
20.2642,305307
20.2705,303444
20.2768,305720
20.2831,305835
20.2895,306263
20.2958,323708
20.3021,304420
20.3084,303360
20.3147,296411
20.321,295401
20.3273,290095
20.3336,308783
20.3399,282364
20.3462,280225
20.3525,278335
20.3588,269939
20.3652,267888
20.3714,269762
20.3778,260654
20.3841,259315
20.3904,250685
20.3967,251239
20.403,247262
20.4093,257655
20.4156,243490
20.4219,233898
20.4282,230391
20.4346,227438
20.4409,237915
20.4472,222777
20.4535,207273
20.4598,208419
20.4661,221668
20.4724,194980
20.4787,187795
20.485,189077
20.4913,175225
20.4976,174782
20.5039,171148
20.5103,164819
20.5166,163340
20.5229,161340
20.5292,160361
20.5355,157005
20.5418,154826
20.5481,149862
20.5544,149774
20.5607,147687
20.567,142477
20.5733,140082
20.5797,140378
20.586,136528
20.5923,136575
20.5986,137382
20.6049,134752
20.6112,127301
20.6175,128943
20.6238,126659
20.6301,123395
20.6364,121930
20.6427,117470
20.649,119397
20.6554,121492
20.6617,120334
20.668,105222
20.6743,114111
20.6806,102808
20.6869,104525
20.6932,96795
20.6995,90475
20.7058,93519
20.7121,87229
20.7184,84000
20.7248,82499
20.7311,81626
20.7374,77433
20.7437,74435
20.75,74958
20.7563,80204
20.7626,70453
20.7689,68188
20.7752,67496
20.7815,62429
20.7878,63223
20.7941,60766
20.8005,60277
20.8068,60996
20.8131,61064
20.8194,56341
20.8257,54143
20.832,55009
20.8383,52902
20.8446,50953
20.8509,52154
20.8572,51043
20.8635,48137
20.8698,47487
20.8762,46442
20.8825,46645
20.8888,45927
20.8951,47052
20.9014,49118
20.9077,43612
20.914,45372
20.9203,44926
20.9266,44056
20.9329,45330
20.9392,43308
20.9456,43550
20.9519,44031
20.9582,45346
20.9645,42041
20.9708,43007
20.9771,40385
20.9834,43295
20.9897,43161
20.996,43290
21.0023,42528
21.0086,46634
21.0149,40906
21.0213,41601
21.0276,41783
21.0339,43389
21.0402,42760
21.0465,42073
21.0528,45023
21.0591,43764
21.0654,43789
21.0717,41431
21.078,42571
21.0843,44531
21.0907,44369
21.097,44899
21.1033,39060
21.1096,46084
21.1159,42111
21.1222,38499
21.1285,42057
21.1348,39836
21.1411,41504
21.1474,38758
21.1537,39282
21.16,41707
21.1664,39832
21.1727,41052
21.179,38492
21.1853,39211
21.1916,35954
21.1979,34720
21.2042,34345
21.2105,34154
21.2168,33886
21.2231,34892
21.2294,33584
21.2357,32793
21.2421,30980
21.2484,31748
21.2547,31675
21.261,30221
21.2673,30749
21.2736,30196
21.2799,29805
21.2862,28291
21.2925,30046
21.2988,27799
21.3051,27563
21.3115,28183
21.3178,27972
21.3241,28384
21.3304,26268
21.3367,27132
21.343,27397
21.3493,25894
21.3556,26133
21.3619,26053
21.3682,24772
21.3745,25079
21.3808,25534
21.3872,24949
21.3935,25813
21.3998,26985
21.4061,25054
21.4124,24560
21.4187,25077
21.425,24417
21.4313,24902
21.4376,25014
21.4439,22606
21.4502,24061
21.4566,22549
21.4629,23242
21.4692,23798
21.4755,22247
21.4818,23387
21.4881,21686
21.4944,22156
21.5007,22575
21.507,23547
21.5133,21535
21.5196,23685
21.5259,24139
21.5323,26023
21.5386,23282
21.5449,24279
21.5512,24523
21.5575,22773
21.5638,24770
21.5701,23462
21.5764,24463
21.5827,22016
21.589,23672
21.5953,22493
21.6016,21979
21.608,22475
21.6143,21417
21.6206,20018
21.6269,20269
21.6332,21397
21.6395,23920
21.6458,21952
21.6521,22733
21.6584,21920
21.6647,20382
21.671,20393
21.6774,20274
21.6837,21314
21.69,20549
21.6963,19832
21.7026,20024
21.7089,20314
21.7152,21793
21.7215,19919
21.7278,20899
21.7341,19905
21.7404,22965
21.7467,20294
21.7531,18973
21.7594,18283
21.7657,20900
21.772,19802
21.7783,21701
21.7846,21165
21.7909,22255
21.7972,19919
21.8035,19796
21.8098,21204
21.8161,18645
21.8225,21306
21.8287,21229
21.8351,20369
21.8414,22207
21.8477,19569
21.854,21847
21.8603,21377
21.8666,20498
21.8729,22083
21.8792,19622
21.8855,19471
21.8918,23682
21.8982,21746
21.9045,19516
21.9108,20563
21.9171,20726
21.9234,21816
21.9297,21669
21.936,21202
21.9423,22105
21.9486,20165
21.9549,25877
21.9612,20754
21.9676,22938
21.9739,23420
21.9802,20449
21.9865,21748
21.9928,22329
21.9991,22157
22.0054,22886
22.0117,21343
22.018,22196
22.0243,22257
22.0306,22038
22.0369,23995
22.0433,23595
22.0496,22635
22.0559,22990
22.0622,22594
22.0685,22808
22.0748,22368
22.0811,23791
22.0874,23929
22.0937,23304
22.1,21797
22.1063,24140
22.1127,24410
22.119,22075
22.1253,22487
22.1316,24742
22.1379,23730
22.1442,24269
22.1505,26694
22.1568,23600
22.1631,24693
22.1694,24019
22.1757,23560
22.182,22051
22.1884,24657
22.1946,25148
22.201,25093
22.2073,24620
22.2136,24005
22.2199,23599
22.2262,23618
22.2325,24197
22.2388,22367
22.2451,23778
22.2514,24122
22.2577,22372
22.2641,22462
22.2704,23305
22.2767,23541
22.283,24621
22.2893,22691
22.2956,23210
22.3019,21067
22.3082,25411
22.3145,24734
22.3208,22759
22.3271,23110
22.3335,25234
22.3398,24447
22.3461,22686
22.3524,24645
22.3587,24029
22.365,24242
22.3713,23664
22.3776,23575
22.3839,23480
22.3902,25009
22.3965,25670
22.4028,24237
22.4092,24398
22.4155,25091
22.4218,24611
22.4281,26596
22.4344,25245
22.4407,24986
22.447,24729
22.4533,23725
22.4596,23477
22.4659,24811
22.4722,23868
22.4786,26086
22.4849,25658
22.4912,27581
22.4975,24800
22.5038,25341
22.5101,27012
22.5164,25934
22.5227,26399
22.529,25467
22.5353,25907
22.5416,26618
22.5479,26184
22.5543,24119
22.5606,25641
22.5669,23247
22.5732,24438
22.5795,24740
22.5858,25969
22.5921,25401
22.5984,24529
22.6047,26827
22.611,26028
22.6173,25512
22.6236,23913
22.63,25076
22.6363,24417
22.6426,24836
22.6489,23918
22.6552,25484
22.6615,24085
22.6678,26583
22.6741,26130
22.6804,25291
22.6867,27409
22.693,24977
22.6994,26424
22.7057,28310
22.712,27277
22.7183,25625
22.7246,24886
22.7309,25969
22.7372,25304
22.7435,26011
22.7498,26159
22.7561,25904
22.7624,27573
22.7687,27258
22.7751,26380
22.7814,25790
22.7877,28684
22.794,26514
22.8003,26521
22.8066,25989
22.8129,27604
22.8192,28710
22.8255,27886
22.8318,25333
22.8381,26225
22.8445,25500
22.8508,25832
22.8571,26515
22.8634,25196
22.8697,26581
22.876,27065
22.8823,27473
22.8886,26606
22.8949,27385
22.9012,26406
22.9075,27947
22.9138,29478
22.9202,27988
22.9265,26725
22.9328,25852
22.9391,27834
22.9454,26620
22.9517,27367
22.958,27317
22.9643,28516
22.9706,25312
22.9769,27001
22.9832,28451
22.9896,27735
22.9959,27638
23.0022,25977
23.0085,26004
23.0148,27764
23.0211,24670
23.0274,27558
23.0337,26706
23.04,26327
23.0463,25663
23.0526,27175
23.0589,25818
23.0653,25352
23.0716,28222
23.0779,28344
23.0842,28113
23.0905,26594
23.0968,28690
23.1031,26108
23.1094,27137
23.1157,28008
23.122,25716
23.1283,24589
23.1346,24952
23.141,24965
23.1473,25231
23.1536,29742
23.1599,26876
23.1662,26304
23.1725,26519
23.1788,27573
23.1851,26032
23.1914,28381
23.1977,26156
23.204,27480
23.2104,26550
23.2167,26766
23.223,25432
23.2293,27358
23.2356,26823
23.2419,24881
23.2482,26604
23.2545,25589
23.2608,27841
23.2671,26526
23.2734,28751
23.2797,28713
23.286,27783
23.2924,29148
23.2987,29327
23.305,24903
23.3113,26846
23.3176,28150
23.3239,27985
23.3302,30385
23.3365,28765
23.3428,28251
23.3491,26518
23.3555,28108
23.3618,26853
23.3681,27959
23.3744,28713
23.3807,26269
23.387,28904
23.3933,28732
23.3996,31001
23.4059,28432
23.4122,27963
23.4185,29687
23.4248,28125
23.4312,28407
23.4375,28091
23.4438,28876
23.4501,26919
23.4564,29749
23.4627,27998
23.469,27247
23.4753,27563
23.4816,27904
23.4879,28975
23.4942,26654
23.5006,29580
23.5069,27224
23.5132,27193
23.5195,26760
23.5258,27377
23.5321,26763
23.5384,28043
23.5447,29644
23.551,25681
23.5573,27649
23.5636,26136
23.5699,26019
23.5763,27570
23.5826,29132
23.5889,28129
23.5952,28212
23.6015,29530
23.6078,30509
23.6141,30122
23.6204,27238
23.6267,28015
23.633,27356
23.6393,27403
23.6456,26026
23.6519,28297
23.6583,27744
23.6646,27918
23.6709,26139
23.6772,26692
23.6835,25955
23.6898,27522
23.6961,26399
23.7024,26007
23.7087,25499
23.715,28012
23.7214,28514
23.7277,26923
23.734,27214
23.7403,26912
23.7466,28645
23.7529,27259
23.7592,26566
23.7655,27502
23.7718,25783
23.7781,27593
23.7844,27454
23.7907,28388
23.7971,29199
23.8034,27716
23.8097,27754
23.816,30474
23.8223,27833
23.8286,31974
23.8349,30140
23.8412,30806
23.8475,27609
23.8538,28923
23.8601,29195
23.8665,30886
23.8728,31270
23.8791,29834
23.8854,27871
23.8917,29357
23.898,28868
23.9043,29314
23.9106,26253
23.9169,28307
23.9232,30600
23.9295,30247
23.9358,29271
23.9422,27580
23.9485,27456
23.9548,26779
23.9611,28009
23.9674,28813
23.9737,27582
23.98,29394
23.9863,27548
23.9926,28642
23.9989,29971
24.0052,25964
24.0116,26496
24.0179,28737
24.0242,29356
24.0305,27945
24.0368,29229
24.0431,29032
24.0494,28972
24.0557,27714
24.062,26228
24.0683,27370
24.0746,27794
24.0809,24403
24.0873,27943
24.0936,27625
24.0999,26210
24.1062,26042
24.1125,27455
24.1188,28170
24.1251,28017
24.1314,26401
24.1377,26479
24.144,29272
24.1503,25926
24.1566,26407
24.163,25183
24.1693,24975
24.1756,22878
24.1819,26268
24.1882,25343
24.1945,23211
24.2008,24648
24.2071,26229
24.2134,26172
24.2197,25938
24.226,26014
24.2324,24803
24.2387,25419
24.245,26249
24.2513,24668
24.2576,26915
24.2639,27481
24.2702,24903
24.2765,23820
24.2828,23723
24.2891,26347
24.2954,25044
24.3017,26638
24.3081,25574
24.3144,24806
24.3207,27023
24.327,23792
24.3333,24540
24.3396,27257
24.3459,24158
24.3522,24808
24.3585,24866
24.3648,26313
24.3711,24844
24.3775,25758
24.3838,24502
24.3901,26530
24.3964,23617
24.4027,25713
24.409,25717
24.4153,23372
24.4216,23210
24.4279,25937
24.4342,24990
24.4405,22603
24.4468,26330
24.4532,23665
24.4595,28234
24.4658,25866
24.4721,23796
24.4784,24073
24.4847,24094
24.491,24079
24.4973,25392
24.5036,24828
24.5099,24201
24.5162,25659
24.5225,26041
24.5289,24601
24.5352,23688
24.5415,25105
24.5478,26834
24.5541,24423
24.5604,24091
24.5667,24922
24.573,23997
24.5793,25939
24.5856,26325
24.5919,25403
24.5983,26618
24.6046,26275
24.6109,23831
24.6172,25205
24.6235,24838
24.6298,25276
24.6361,26202
24.6424,24172
24.6487,26627
24.655,24915
24.6613,24492
24.6676,25729
24.674,27656
24.6803,26179
24.6866,25943
24.6929,26348
24.6992,27207
24.7055,26649
24.7118,28010
24.7181,27212
24.7244,28541
24.7307,29402
24.737,29130
24.7434,27429
24.7497,29759
24.756,29164
24.7623,30149
24.7686,31481
24.7749,34988
24.7812,35026
24.7875,33197
24.7938,31192
24.8001,33660
24.8064,30393
24.8127,27493
24.8191,27870
24.8254,24867
24.8317,27036
24.838,25682
24.8443,24877
24.8506,26145
24.8569,24852
24.8632,25537
24.8695,25406
24.8758,24125
24.8821,23978
24.8885,25282
24.8948,25023
24.9011,24976
24.9074,26579
24.9137,24781
24.92,25015
24.9263,23473
24.9326,25659
24.9389,23824
24.9452,21450
24.9515,25347
24.9578,25720
24.9642,25799
24.9705,24828
24.9768,26918
24.9831,24494
24.9894,25102
24.9957,26083
25.002,26461
25.0083,27215
25.0146,25755
25.0209,28129
25.0272,27558
25.0335,25734
25.0399,27827
25.0462,27484
25.0525,29552
25.0588,28381
25.0651,27794
25.0714,25868
25.0777,28108
25.084,25383
25.0903,29096
25.0966,28581
25.1029,28151
25.1093,27687
25.1156,25906
25.1219,25491
25.1282,27680
25.1345,26806
25.1408,27670
25.1471,27209
25.1534,28736
25.1597,28254
25.166,31431
25.1723,29626
25.1786,29686
25.185,30072
25.1913,30524
25.1976,30198
25.2039,30809
25.2102,31447
25.2165,29401
25.2228,31134
25.2291,29885
25.2354,29943
25.2417,30999
25.248,31411
25.2544,30560
25.2607,29231
25.267,27889
25.2733,27398
25.2796,28185
25.2859,27775
25.2922,28014
25.2985,27054
25.3048,27387
25.3111,27910
25.3174,27489
25.3237,26980
25.3301,27633
25.3363,26956
25.3427,27313
25.349,29652
25.3553,27498
25.3616,27072
25.3679,26497
25.3742,24724
25.3805,25406
25.3868,26080
25.3931,28317
25.3995,26420
25.4058,27297
25.4121,27272
25.4184,25992
25.4247,25211
25.431,27462
25.4373,23759
25.4436,28725
25.4499,26185
25.4562,29029
25.4625,26316
25.4688,27098
25.4752,27275
25.4815,28031
25.4878,26715
25.4941,30517
25.5004,30474
25.5067,27448
25.513,27525
25.5193,28096
25.5256,29543
25.5319,28124
25.5382,28973
25.5445,28873
25.5509,31333
25.5572,33528
25.5635,35505
25.5698,34409
25.5761,35131
25.5824,35560
25.5887,38317
25.595,38888
25.6013,39989
25.6076,41278
25.6139,45923
25.6203,48701
25.6266,48832
25.6329,49785
25.6392,51616
25.6455,53957
25.6518,54075
25.6581,54491
25.6644,58780
25.6707,62315
25.677,64799
25.6833,74017
25.6896,80610
25.696,84089
25.7023,93888
25.7086,103789
25.7149,114521
25.7212,134047
25.7275,138004
25.7338,146455
25.7401,151327
25.7464,155414
25.7527,166842
25.759,166466
25.7654,170864
25.7717,172629
25.778,170039
25.7843,173526
25.7906,167597
25.7969,167589
25.8032,161854
25.8095,170437
25.8158,172082
25.8221,179079
25.8284,187860
25.8347,199591
25.8411,204926
25.8474,236870
25.8537,224841
25.86,238726
25.8663,241306
25.8726,234496
25.8789,229854
25.8852,228453
25.8915,228282
25.8978,211410
25.9041,200539
25.9105,189022
25.9168,179356
25.9231,171227
25.9294,157754
25.9357,155299
25.942,144504
25.9483,135990
25.9546,130640
25.9609,129261
25.9672,115828
25.9735,113270
25.9798,113514
25.9862,104713
25.9925,102222
25.9988,97116
26.0051,95655
26.0114,88849
26.0177,86747
26.024,82419
26.0303,82089
26.0366,72839
26.0429,70064
26.0492,69380
26.0555,68014
26.0619,65268
26.0682,63819
26.0745,63205
26.0808,62291
26.0871,59115
26.0934,54426
26.0997,54067
26.106,52565
26.1123,53263
26.1186,49786
26.1249,52858
26.1313,52334
26.1376,48763
26.1439,47846
26.1502,49647
26.1565,45923
26.1628,47461
26.1691,47164
26.1754,45495
26.1817,46155
26.188,48845
26.1943,44780
26.2006,43028
26.207,43957
26.2133,42491
26.2196,44649
26.2259,43899
26.2322,42643
26.2385,40642
26.2448,39473
26.2511,41011
26.2574,39561
26.2637,37823
26.27,38517
26.2764,37877
26.2827,41511
26.289,41834
26.2953,44566
26.3016,42595
26.3079,45658
26.3142,49852
26.3205,45007
26.3268,53506
26.3331,52853
26.3394,56130
26.3457,62402
26.3521,68767
26.3584,87288
26.3647,110939
26.371,134298
26.3773,148661
26.3836,152773
26.3899,137496
26.3962,119325
26.4025,99934
26.4088,83860
26.4151,78383
26.4214,75461
26.4278,79164
26.4341,85176
26.4404,93449
26.4467,98104
26.453,113687
26.4593,142411
26.4656,182754
26.4719,240184
26.4782,272948
26.4845,310113
26.4908,316465
26.4972,296733
26.5035,304992
26.5098,326186
26.5161,350829
26.5224,397528
26.5287,441769
26.535,425654
26.5413,355596
26.5476,296802
26.5539,249707
26.5602,197729
26.5665,178309
26.5729,190412
26.5792,213038
26.5855,267042
26.5918,358832
26.5981,492431
26.6044,620395
26.6107,680390
26.617,665700
26.6233,551131
26.6296,414703
26.6359,293366
26.6423,208836
26.6486,172042
26.6549,144750
26.6612,143923
26.6675,149236
26.6738,173766
26.6801,217081
26.6864,278721
26.6927,317890
26.699,318351
26.7053,290664
26.7116,245015
26.718,228206
26.7243,247949
26.7306,308153
26.7369,412387
26.7432,521447
26.7495,577721
26.7558,513508
26.7621,413134
26.7684,300998
26.7747,206990
26.781,150754
26.7874,115402
26.7937,94979
26.8,86549
26.8063,75154
26.8126,73312
26.8189,66378
26.8252,59453
26.8315,55691
26.8378,49791
26.8441,43930
26.8504,46853
26.8567,44607
26.8631,43119
26.8694,41867
26.8757,41195
26.882,41849
26.8883,38798
26.8946,40873
26.9009,42152
26.9072,44931
26.9135,42865
26.9198,42552
26.9261,39022
26.9324,38503
26.9388,36106
26.9451,37475
26.9514,40375
26.9577,36982
26.964,36595
26.9703,36180
26.9766,34629
26.9829,38021
26.9892,39275
26.9955,38978
27.0018,39323
27.0082,39636
27.0145,41038
27.0208,39709
27.0271,41522
27.0334,38882
27.0397,37024
27.046,35593
27.0523,33718
27.0586,34902
27.0649,35686
27.0712,33645
27.0775,35927
27.0839,34518
27.0902,36251
27.0965,34369
27.1028,38914
27.1091,40599
27.1154,38793
27.1217,39315
27.128,36046
27.1343,34965
27.1406,39219
27.1469,34696
27.1533,40734
27.1596,44942
27.1659,53002
27.1722,56666
27.1785,54355
27.1848,50656
27.1911,45905
27.1974,40955
27.2037,38814
27.21,36879
27.2163,38357
27.2226,39284
27.229,37975
27.2353,40001
27.2416,38637
27.2479,38223
27.2542,36422
27.2605,36628
27.2668,37003
27.2731,36489
27.2794,37487
27.2857,39481
27.292,41617
27.2984,44950
27.3047,46330
27.311,44624
27.3173,45604
27.3236,39994
27.3299,37445
27.3362,35157
27.3425,35601
27.3488,37356
27.3551,37970
27.3614,37019
27.3677,37965
27.3741,37523
27.3804,39659
27.3867,35864
27.393,36756
27.3993,37729
27.4056,39266
27.4119,36249
27.4182,37491
27.4245,38754
27.4308,38176
27.4371,40085
27.4434,40392
27.4498,40073
27.4561,41355
27.4624,40176
27.4687,38690
27.475,37490
27.4813,40467
27.4876,38833
27.4939,40027
27.5002,38057
27.5065,37568
27.5128,38194
27.5192,36343
27.5255,39577
27.5318,40964
27.5381,39016
27.5444,37420
27.5507,38034
27.557,40653
27.5633,41285
27.5696,37151
27.5759,38604
27.5822,38294
27.5885,41219
27.5949,39280
27.6012,38478
27.6075,41129
27.6138,39126
27.6201,38629
27.6264,39549
27.6327,40612
27.639,39871
27.6453,39851
27.6516,38924
27.6579,40454
27.6643,42763
27.6706,39587
27.6769,41192
27.6832,41147
27.6895,39488
27.6958,39007
27.7021,41198
27.7084,40754
27.7147,37356
27.721,36903
27.7273,39672
27.7336,36680
27.74,40028
27.7463,38648
27.7526,40980
27.7589,40474
27.7652,40637
27.7715,41353
27.7778,40023
27.7841,41232
27.7904,41767
27.7967,39333
27.803,42352
27.8093,41531
27.8157,44670
27.822,40285
27.8283,42190
27.8346,41885
27.8409,39226
27.8472,40674
27.8535,41092
27.8598,42091
27.8661,41800
27.8724,45337
27.8787,45741
27.8851,43524
27.8914,46421
27.8977,46169
27.904,48166
27.9103,46316
27.9166,46723
27.9229,45123
27.9292,43859
27.9355,46854
27.9418,49567
27.9481,47723
27.9544,46280
27.9608,44717
27.9671,47986
27.9734,44359
27.9797,45548
27.986,45236
27.9923,45890
27.9986,44267
28.0049,47150
28.0112,44756
28.0175,46032
28.0238,44799
28.0302,47410
28.0365,47228
28.0428,43226
28.0491,46731
28.0554,47843
28.0617,50954
28.068,53566
28.0743,53291
28.0806,54669
28.0869,55160
28.0932,52919
28.0995,52489
28.1059,50890
28.1122,48189
28.1185,46943
28.1248,47316
28.1311,50800
28.1374,50578
28.1437,50839
28.15,53512
28.1563,49628
28.1626,51821
28.1689,48816
28.1753,47809
28.1816,51326
28.1879,48195
28.1942,49816
28.2005,45143
28.2068,51505
28.2131,50473
28.2194,54680
28.2257,53679
28.232,51825
28.2383,50570
28.2446,56336
28.251,55574
28.2573,55005
28.2636,55125
28.2699,57052
28.2762,55753
28.2825,51571
28.2888,53231
28.2951,53786
28.3014,55962
28.3077,50916
28.314,54055
28.3203,50783
28.3267,51485
28.333,50449
28.3393,49434
28.3456,51678
28.3519,50215
28.3582,51427
28.3645,50543
28.3708,53155
28.3771,54630
28.3834,54802
28.3897,54809
28.3961,57961
28.4024,55347
28.4087,56347
28.415,56264
28.4213,54512
28.4276,54177
28.4339,54357
28.4402,56591
28.4465,58608
28.4528,56744
28.4591,57794
28.4654,55560
28.4718,56011
28.4781,58390
28.4844,57917
28.4907,57322
28.497,62210
28.5033,63510
28.5096,62708
28.5159,60171
28.5222,61238
28.5285,60155
28.5348,57960
28.5412,55512
28.5475,59070
28.5538,58408
28.5601,60888
28.5664,61842
28.5727,63996
28.579,74126
28.5853,84079
28.5916,99575
28.5979,114888
28.6042,136634
28.6105,153841
28.6169,176240
28.6232,197970
28.6295,227032
28.6358,253262
28.6421,320593
28.6484,409355
28.6547,519784
28.661,631472
28.6673,682883
28.6736,680086
28.6799,645487
28.6863,574227
28.6926,526230
28.6989,488483
28.7052,468517
28.7115,468396
28.7178,446429
28.7241,425058
28.7304,376398
28.7367,331189
28.743,287695
28.7493,243383
28.7556,211251
28.762,187172
28.7683,161565
28.7746,153623
28.7809,148428
28.7872,137688
28.7935,131210
28.7998,128737
28.8061,126485
28.8124,126571
28.8187,124472
28.825,123945
28.8313,126830
28.8377,128093
28.844,129836
28.8503,138640
28.8566,145980
28.8629,151895
28.8692,157517
28.8755,159871
28.8818,164298
28.8881,174987
28.8944,186620
28.9007,210271
28.9071,244597
28.9134,289795
28.9197,318503
28.926,339157
28.9323,339679
28.9386,326502
28.9449,344792
28.9512,338224
28.9575,357062
28.9638,360368
28.9701,339302
28.9764,319191
28.9828,290142
28.9891,261764
28.9954,229495
29.0017,219660
29.008,182373
29.0143,170099
29.0206,157135
29.0269,146427
29.0332,150017
29.0395,143463
29.0458,137580
29.0522,137719
29.0585,137832
29.0648,132870
29.0711,133972
29.0774,126069
29.0837,125056
29.09,125643
29.0963,128074
29.1026,135177
29.1089,132426
29.1152,137207
29.1215,133634
29.1279,131327
29.1342,121054
29.1405,113769
29.1468,108822
29.1531,103067
29.1594,94879
29.1657,92299
29.172,86353
29.1783,85560
29.1846,82773
29.1909,80522
29.1973,75958
29.2036,79309
29.2099,76477
29.2162,74942
29.2225,74092
29.2288,71558
29.2351,74356
29.2414,71084
29.2477,74137
29.254,73551
29.2603,73680
29.2666,71296
29.273,73059
29.2793,70219
29.2856,70340
29.2919,71814
29.2982,69483
29.3045,69471
29.3108,68989
29.3171,68973
29.3234,69360
29.3297,70097
29.336,69556
29.3423,67467
29.3487,69963
29.355,70217
29.3613,69298
29.3676,70317
29.3739,68567
29.3802,69988
29.3865,73126
29.3928,74055
29.3991,69855
29.4054,66854
29.4117,69478
29.4181,70163
29.4244,71175
29.4307,73065
29.437,69163
29.4433,70271
29.4496,70681
29.4559,74325
29.4622,71477
29.4685,72052
29.4748,75179
29.4811,73941
29.4874,70400
29.4938,74323
29.5001,70789
29.5064,69831
29.5127,70817
29.519,72436
29.5253,74013
29.5316,74892
29.5379,71484
29.5442,74393
29.5505,72974
29.5568,73246
29.5632,72167
29.5695,75044
29.5758,74329
29.5821,74612
29.5884,71787
29.5947,73256
29.601,74607
29.6073,74021
29.6136,76178
29.6199,73867
29.6262,74194
29.6325,75703
29.6389,74488
29.6452,73955
29.6515,72454
29.6578,77078
29.6641,74951
29.6704,78968
29.6767,73606
29.683,75671
29.6893,79475
29.6956,76818
29.7019,74114
29.7082,76201
29.7146,74425
29.7209,76677
29.7272,75521
29.7335,81873
29.7398,78865
29.7461,78397
29.7524,79805
29.7587,78878
29.765,78742
29.7713,77390
29.7776,79298
29.784,82487
29.7903,82347
29.7966,80490
29.8029,77977
29.8092,77495
29.8155,83118
29.8218,81745
29.8281,80973
29.8344,81603
29.8407,82080
29.847,82408
29.8533,82247
29.8597,80151
29.866,81701
29.8723,81661
29.8786,84105
29.8849,81943
29.8912,85219
29.8975,83048
29.9038,86569
29.9101,82672
29.9164,84915
29.9227,83030
29.9291,84335
29.9354,87252
29.9417,85875
29.948,86464
29.9543,92299
29.9606,89545
29.9669,88788
29.9732,87389
29.9795,88049
29.9858,86499
29.9921,91404
29.9984,90456
30.0048,90447
30.0111,88838
30.0174,90478
30.0237,88849
30.03,91671
30.0363,89623
30.0426,91460
30.0489,91169
30.0552,90774
30.0615,91363
30.0678,92719
30.0742,89931
30.0805,92758
30.0868,93393
30.0931,91368
30.0994,91439
30.1057,92988
30.112,93756
30.1183,89991
30.1246,94384
30.1309,94415
30.1372,90317
30.1435,91516
30.1499,93979
30.1562,93834
30.1625,92689
30.1688,95662
30.1751,98636
30.1814,96962
30.1877,96791
30.194,98649
30.2003,99681
30.2066,100006
30.2129,98603
30.2192,100933
30.2256,100234
30.2319,99364
30.2382,98242
30.2445,98763
30.2508,99800
30.2571,101273
30.2634,103934
30.2697,107862
30.276,107378
30.2823,107498
30.2886,105767
30.295,106578
30.3013,103442
30.3076,106579
30.3139,106426
30.3202,104652
30.3265,103148
30.3328,103305
30.3391,102016
30.3454,105101
30.3517,98722
30.358,105130
30.3643,105254
30.3707,107985
30.377,102437
30.3833,104689
30.3896,100633
30.3959,103629
30.4022,105101
30.4085,106316
30.4148,101231
30.4211,103953
30.4274,103024
30.4337,104506
30.4401,105288
30.4464,102053
30.4527,104321
30.459,106390
30.4653,109588
30.4716,109205
30.4779,105642
30.4842,108952
30.4905,104154
30.4968,108873
30.5031,105694
30.5094,106326
30.5158,110285
30.5221,105423
30.5284,108566
30.5347,113453
30.541,111218
30.5473,105615
30.5536,109926
30.5599,106251
30.5662,111665
30.5725,110744
30.5788,109957
30.5852,105410
30.5915,107891
30.5978,109423
30.6041,110457
30.6104,109578
30.6167,111043
30.623,108759
30.6293,111006
30.6356,112794
30.6419,107933
30.6482,106144
30.6545,107806
30.6609,112878
30.6672,110483
30.6735,114897
30.6798,111206
30.6861,108166
30.6924,108120
30.6987,111107
30.705,107180
30.7113,113066
30.7176,111391
30.7239,110823
30.7302,115323
30.7366,110097
30.7429,110049
30.7492,111682
30.7555,109819
30.7618,110238
30.7681,114422
30.7744,111066
30.7807,111815
30.787,112582
30.7933,112388
30.7996,111878
30.806,113049
30.8123,110271
30.8186,108853
30.8249,109549
30.8312,109283
30.8375,112154
30.8438,108655
30.8501,114727
30.8564,112119
30.8627,113629
30.869,111230
30.8753,113544
30.8817,114406
30.888,114444
30.8943,118545
30.9006,116005
30.9069,120618
30.9132,117008
30.9195,124897
30.9258,122586
30.9321,126382
30.9384,114140
30.9447,116991
30.9511,115308
30.9574,110654
30.9637,114173
30.97,113443
30.9763,116659
30.9826,116633
30.9889,118415
30.9952,119030
31.0015,119688
31.0078,122676
31.0141,117677
31.0204,116087
31.0268,120653
31.0331,114029
31.0394,114385
31.0457,117397
31.052,116610
31.0583,115891
31.0646,114895
31.0709,117049
31.0772,122372
31.0835,124397
31.0898,129300
31.0962,127660
31.1025,128229
31.1088,133234
31.1151,133608
31.1214,136633
31.1277,135652
31.134,128955
31.1403,122677
31.1466,123023
31.1529,124541
31.1592,122328
31.1655,122991
31.1719,125017
31.1782,129466
31.1845,125995
31.1908,127961
31.1971,127151
31.2034,124228
31.2097,122737
31.216,121556
31.2223,124143
31.2286,124337
31.2349,125781
31.2412,122009
31.2476,124914
31.2539,124873
31.2602,129412
31.2665,127199
31.2728,124690
31.2791,122547
31.2854,127880
31.2917,130325
31.298,128314
31.3043,127821
31.3106,125079
31.317,126892
31.3233,127110
31.3296,126392
31.3359,131471
31.3422,130873
31.3485,135062
31.3548,131360
31.3611,130618
31.3674,131332
31.3737,128247
31.38,128492
31.3863,129826
31.3927,130429
31.399,127783
31.4053,128168
31.4116,127672
31.4179,129989
31.4242,130562
31.4305,130557
31.4368,130841
31.4431,132397
31.4494,129408
31.4557,129894
31.4621,134913
31.4684,134784
31.4747,136058
31.481,126044
31.4873,127878
31.4936,131380
31.4999,129090
31.5062,132607
31.5125,132291
31.5188,135063
31.5251,127002
31.5314,132102
31.5378,130366
31.5441,132476
31.5504,130470
31.5567,131541
31.563,135200
31.5693,132157
31.5756,130788
31.5819,132136
31.5882,135144
31.5945,131830
31.6008,131363
31.6071,130919
31.6135,135553
31.6198,133971
31.6261,135807
31.6324,133493
31.6387,133253
31.645,132922
31.6513,132926
31.6576,133588
31.6639,132472
31.6702,129161
31.6765,134234
31.6829,132655
31.6892,135301
31.6955,137657
31.7018,134938
31.7081,134866
31.7144,137330
31.7207,139216
31.727,136114
31.7333,137420
31.7396,131962
31.7459,135716
31.7522,135700
31.7586,135054
31.7649,138364
31.7712,139437
31.7775,136936
31.7838,131113
31.7901,135591
31.7964,140208
31.8027,140813
31.809,136185
31.8153,142252
31.8216,145518
31.828,144217
31.8343,139796
31.8406,142189
31.8469,147884
31.8532,143198
31.8595,143425
31.8658,144942
31.8721,144733
31.8784,144697
31.8847,142514
31.891,141154
31.8973,141854
31.9037,147896
31.91,146208
31.9163,149461
31.9226,147591
31.9289,146726
31.9352,144582
31.9415,147375
31.9478,146976
31.9541,143858
31.9604,144565
31.9667,148301
31.9731,144008
31.9794,146984
31.9857,148988
31.992,150655
31.9983,152144
32.0046,151399
32.0109,150779
32.0172,153120
32.0235,152609
32.0298,153015
32.0361,153300
32.0424,158751
32.0487,154722
32.0551,154020
32.0614,156647
32.0677,155516
32.074,156449
32.0803,158234
32.0866,157680
32.0929,157237
32.0992,158161
32.1055,159482
32.1118,163781
32.1181,160637
32.1245,160734
32.1308,157718
32.1371,163781
32.1434,162757
32.1497,164413
32.156,166051
32.1623,164278
32.1686,160832
32.1749,158186
32.1812,161366
32.1875,160891
32.1938,158954
32.2002,156570
32.2065,162611
32.2128,162229
32.2191,163182
32.2254,161870
32.2317,158435
32.238,163453
32.2443,161536
32.2506,160267
32.2569,163371
32.2632,162069
32.2696,159720
32.2758,166109
32.2822,162653
32.2885,164188
32.2948,161862
32.3011,168270
32.3074,160562
32.3137,165030
32.32,162409
32.3263,169408
32.3326,168811
32.3389,172812
32.3453,174596
32.3516,172458
32.3579,173344
32.3642,173799
32.3705,174008
32.3768,166580
32.3831,173923
32.3894,174651
32.3957,173252
32.402,175106
32.4083,176399
32.4147,165368
32.4209,171950
32.4273,167824
32.4336,173788
32.4399,176012
32.4462,175816
32.4525,173264
32.4588,175320
32.4651,172970
32.4714,171356
32.4777,172904
32.4841,173887
32.4903,173338
32.4967,179609
32.503,172989
32.5093,176475
32.5156,176643
32.5219,182536
32.5282,180939
32.5345,185610
32.5408,193499
32.5471,194540
32.5534,201234
32.5598,201935
32.566,202793
32.5724,202005
32.5787,198568
32.585,204743
32.5913,205506
32.5976,204708
32.6039,208402
32.6102,202717
32.6165,203955
32.6228,202787
32.6291,192626
32.6354,200353
32.6418,199416
32.6481,198264
32.6544,200440
32.6607,199795
32.667,198901
32.6733,196996
32.6796,202805
32.6859,202756
32.6922,201775
32.6985,202818
32.7049,205354
32.7112,205450
32.7175,200968
32.7238,197698
32.7301,201138
32.7364,200837
32.7427,200926
32.749,200528
32.7553,195888
32.7616,195137
32.7679,199575
32.7742,196687
32.7805,197590
32.7869,198293
32.7932,206046
32.7995,199092
32.8058,201135
32.8121,192842
32.8184,200860
32.8247,195652
32.831,197246
32.8373,196589
32.8436,197880
32.85,202060
32.8563,197871
32.8626,207347
32.8689,212251
32.8752,219490
32.8815,214325
32.8878,213426
32.8941,207427
32.9004,194286
32.9067,194079
32.913,194382
32.9193,190997
32.9256,187199
32.932,181731
32.9383,187220
32.9446,184937
32.9509,179527
32.9572,187478
32.9635,184144
32.9698,185548
32.9761,185551
32.9824,185394
32.9887,187450
32.995,184876
33.0014,183198
33.0077,187888
33.014,187954
33.0203,186202
33.0266,185098
33.0329,188795
33.0392,190006
33.0455,189645
33.0518,193424
33.0581,190187
33.0644,191293
33.0707,191055
33.0771,195236
33.0834,194823
33.0897,192722
33.096,192909
33.1023,189682
33.1086,190032
33.1149,189479
33.1212,191910
33.1275,187644
33.1338,188893
33.1401,187030
33.1465,189381
33.1527,187726
33.1591,184363
33.1654,188655
33.1717,187719
33.178,185992
33.1843,185681
33.1906,186949
33.1969,186395
33.2032,188215
33.2095,180569
33.2159,194382
33.2221,187989
33.2285,187421
33.2348,187109
33.2411,185928
33.2474,188347
33.2537,183987
33.26,191407
33.2663,187039
33.2726,187981
33.2789,187390
33.2852,186985
33.2916,196554
33.2978,187365
33.3042,190493
33.3105,192683
33.3168,196692
33.3231,193729
33.3294,196482
33.3357,189533
33.342,188663
33.3483,195268
33.3546,191764
33.361,192674
33.3672,194753
33.3736,186745
33.3799,190613
33.3862,197266
33.3925,198154
33.3988,192133
33.4051,198980
33.4114,195165
33.4177,206269
33.424,214084
33.4303,218518
33.4367,217551
33.443,218511
33.4493,214481
33.4556,223311
33.4619,225697
33.4682,244579
33.4745,244628
33.4808,256325
33.4871,260108
33.4934,257527
33.4997,263099
33.506,263476
33.5123,268158
33.5187,275945
33.525,278841
33.5313,289513
33.5376,298066
33.5439,315686
33.5502,340748
33.5565,361925
33.5628,361277
33.5691,329727
33.5754,285564
33.5818,256656
33.5881,241413
33.5944,221549
33.6007,222961
33.607,216318
33.6133,215469
33.6196,214140
33.6259,218909
33.6322,215912
33.6385,211152
33.6448,208139
33.6511,209693
33.6574,212805
33.6638,218008
33.6701,217843
33.6764,211495
33.6827,213764
33.689,208162
33.6953,209852
33.7016,210528
33.7079,210439
33.7142,217188
33.7205,211847
33.7268,224830
33.7332,226554
33.7395,224503
33.7458,220950
33.7521,211900
33.7584,215314
33.7647,210774
33.771,213771
33.7773,212027
33.7836,215697
33.7899,216847
33.7962,215811
33.8025,220649
33.8089,214651
33.8152,214667
33.8215,211803
33.8278,216638
33.8341,215894
33.8404,215480
33.8467,215862
33.853,216910
33.8593,209761
33.8656,217050
33.8719,209453
33.8783,217261
33.8846,220213
33.8909,210487
33.8972,219108
33.9035,218353
33.9098,218305
33.9161,214899
33.9224,215396
33.9287,217935
33.935,217933
33.9413,209526
33.9477,219449
33.9539,214189
33.9603,228064
33.9666,221852
33.9729,223766
33.9792,219106
33.9855,222850
33.9918,216012
33.9981,222029
34.0044,208102
34.0107,216751
34.017,217919
34.0234,220601
34.0296,219278
34.036,226188
34.0423,216161
34.0486,226832
34.0549,219705
34.0612,205325
34.0675,176586
34.0738,215780
34.0801,211132
34.0864,223332
34.0928,168409
34.099,187241
34.1054,225746
34.1117,216107
34.118,196319
34.1243,179166
34.1306,198125
34.1369,172396
34.1432,193634
34.1495,160404
34.1558,157372
34.1621,168604
34.1685,171099
34.1748,180484
34.1811,254621
34.1874,301758
34.1937,382012
34.2,453121
34.2063,458783
34.2126,403052
34.2189,294688
34.2252,285253
34.2315,197292
34.2379,184775
34.2441,196984
34.2505,175870
34.2568,180908
34.2631,181880
34.2694,195556
34.2757,199184
34.282,196868
34.2883,182353
34.2946,177459
34.3009,181457
34.3072,175847
34.3135,165147
34.3199,166780
34.3262,170711
34.3325,164537
34.3388,167239
34.3451,175051
34.3514,168013
34.3577,168093
34.364,164561
34.3703,164236
34.3766,170645
34.383,167768
34.3892,166310
34.3956,172642
34.4019,176202
34.4082,172696
34.4145,172348
34.4208,173783
34.4271,171969
34.4334,175065
34.4397,169198
34.446,170094
34.4523,175002
34.4586,170818
34.465,167319
34.4713,168949
34.4776,174206
34.4839,175662
34.4902,174811
34.4965,173670
34.5028,172431
34.5091,167313
34.5154,176045
34.5217,168819
34.528,170534
34.5344,175293
34.5406,171569
34.547,172525
34.5533,174648
34.5596,173362
34.5659,175095
34.5722,172638
34.5785,180811
34.5848,180249
34.5911,182275
34.5974,181028
34.6037,181373
34.6101,186221
34.6164,181633
34.6227,187552
34.629,187159
34.6353,186880
34.6416,184585
34.6479,187786
34.6542,191654
34.6605,185118
34.6668,179932
34.6731,182976
34.6795,183143
34.6857,185587
34.6921,185606
34.6984,185840
34.7047,181320
34.711,186853
34.7173,184505
34.7236,186716
34.7299,180735
34.7362,189801
34.7425,189330
34.7488,193991
34.7552,181311
34.7615,190084
34.7678,187340
34.7741,185464
34.7804,190481
34.7867,193080
34.793,195409
34.7993,203490
34.8056,222127
34.8119,244878
34.8182,252634
34.8246,251886
34.8309,248781
34.8372,238664
34.8435,219316
34.8498,217055
34.8561,208625
34.8624,209660
34.8687,208528
34.875,206832
34.8813,208509
34.8876,202632
34.8939,202035
34.9003,202816
34.9066,198791
34.9129,201945
34.9192,200829
34.9255,202429
34.9318,202166
34.9381,199119
34.9444,204694
34.9507,202537
34.957,201848
34.9633,200915
34.9697,200965
34.976,199823
34.9823,201234
34.9886,205413
34.9949,203447
35.0012,209301
35.0075,204321
35.0138,206368
35.0201,209102
35.0264,206517
35.0327,215297
35.039,216215
35.0453,217636
35.0517,228142
35.058,228936
35.0643,221577
35.0706,217397
35.0769,216123
35.0832,213938
35.0895,207733
35.0958,213777
35.1021,208000
35.1084,213858
35.1148,215199
35.1211,214078
35.1274,212141
35.1337,210076
35.14,212907
35.1463,218336
35.1526,211218
35.1589,211238
35.1652,214616
35.1715,215797
35.1778,215889
35.1841,214098
35.1904,214216
35.1968,215557
35.2031,216135
35.2094,216296
35.2157,218622
35.222,217609
35.2283,217788
35.2346,216894
35.2409,214769
35.2472,216949
35.2535,212781
35.2599,212334
35.2662,217937
35.2725,220430
35.2788,216530
35.2851,217908
35.2914,220266
35.2977,215745
35.304,217846
35.3103,217757
35.3166,225188
35.3229,219595
35.3292,220697
35.3356,215030
35.3419,221089
35.3482,220355
35.3545,217712
35.3608,222474
35.3671,224491
35.3734,227541
35.3797,221919
35.386,221979
35.3923,230468
35.3986,232862
35.4049,236129
35.4113,244746
35.4176,248174
35.4239,254967
35.4302,258075
35.4365,254140
35.4428,250916
35.4491,247051
35.4554,237519
35.4617,240691
35.468,236751
35.4743,242687
35.4807,233565
35.487,235268
35.4933,232682
35.4996,224574
35.5059,226345
35.5122,231825
35.5185,229184
35.5248,228557
35.5311,227992
35.5374,224979
35.5437,229093
35.55,229560
35.5564,227261
35.5627,230005
35.569,225848
35.5753,229577
35.5816,229915
35.5879,232003
35.5942,229127
35.6005,226610
35.6068,228227
35.6131,230924
35.6194,229230
35.6258,226797
35.6321,225629
35.6384,231547
35.6447,230286
35.651,233148
35.6573,231206
35.6636,230651
35.6699,235689
35.6762,230932
35.6825,232430
35.6888,234847
35.6951,231087
35.7015,235464
35.7078,229596
35.7141,229966
35.7204,235566
35.7267,232338
35.733,238545
35.7393,233518
35.7456,233093
35.7519,234303
35.7582,233638
35.7645,230131
35.7709,233998
35.7771,230086
35.7835,231738
35.7898,234357
35.7961,233660
35.8024,233231
35.8087,232983
35.815,244324
35.8213,239746
35.8276,241025
35.8339,242219
35.8402,242628
35.8466,249646
35.8529,245327
35.8592,248606
35.8655,242258
35.8718,240365
35.8781,239984
35.8844,235627
35.8907,238357
35.897,236437
35.9033,232936
35.9096,238871
35.9159,234839
35.9222,230802
35.9286,232189
35.9349,239236
35.9412,243562
35.9475,238942
35.9538,239932
35.9601,239068
35.9664,235459
35.9727,242193
35.979,237992
35.9853,241752
35.9917,248542
35.998,254358
36.0043,258295
36.0106,253357
36.0169,256536
36.0232,248439
36.0295,249382
36.0358,249016
36.0421,252824
36.0484,253501
36.0547,254105
36.061,252436
36.0674,251709
36.0737,249089
36.08,251275
36.0863,240969
36.0926,249857
36.0989,243508
36.1052,246443
36.1115,250521
36.1178,247515
36.1241,243578
36.1304,246077
36.1367,240478
36.1431,235396
36.1494,244694
36.1557,245375
36.162,237887
36.1683,242028
36.1746,235199
36.1809,241311
36.1872,242221
36.1935,246489
36.1998,241593
36.2061,247425
36.2125,247720
36.2188,237344
36.2251,245840
36.2314,245240
36.2377,247011
36.244,242646
36.2503,244572
36.2566,243002
36.2629,248040
36.2692,246845
36.2755,253020
36.2818,249425
36.2882,252377
36.2945,253352
36.3008,244597
36.3071,250414
36.3134,250634
36.3197,244755
36.326,250564
36.3323,247455
36.3386,245164
36.3449,246093
36.3512,249146
36.3576,246584
36.3638,252562
36.3702,248016
36.3765,244799
36.3828,243522
36.3891,245743
36.3954,250719
36.4017,246076
36.408,247536
36.4143,244557
36.4206,252382
36.4269,240746
36.4333,246238
36.4396,250341
36.4459,252569
36.4522,247498
36.4585,251746
36.4648,253800
36.4711,253317
36.4774,247573
36.4837,246787
36.49,248096
36.4963,247307
36.5027,251214
36.5089,253236
36.5153,252745
36.5216,253358
36.5279,251676
36.5342,245493
36.5405,256805
36.5468,252781
36.5531,253876
36.5594,252781
36.5657,254956
36.572,254783
36.5784,248190
36.5847,251448
36.591,252473
36.5973,254976
36.6036,257499
36.6099,250284
36.6162,252365
36.6225,256983
36.6288,256444
36.6351,261584
36.6414,254927
36.6478,258975
36.6541,262498
36.6604,261208
36.6667,259712
36.673,260325
36.6793,268128
36.6856,264971
36.6919,268175
36.6982,266265
36.7045,256743
36.7108,259167
36.7171,266616
36.7235,266939
36.7298,271627
36.7361,266523
36.7424,262346
36.7487,262957
36.755,262293
36.7613,262194
36.7676,264609
36.7739,257111
36.7802,256711
36.7865,264108
36.7928,261406
36.7992,261772
36.8055,264560
36.8118,261902
36.8181,265052
36.8244,259071
36.8307,260629
36.837,260461
36.8433,259451
36.8496,260738
36.8559,264399
36.8622,263843
36.8685,257624
36.8749,266323
36.8812,262634
36.8875,258320
36.8938,259424
36.9001,261561
36.9064,264831
36.9127,263413
36.919,260599
36.9253,262877
36.9316,262633
36.9379,269708
36.9443,265830
36.9506,267307
36.9569,260698
36.9632,264582
36.9695,267064
36.9758,265460
36.9821,262218
36.9884,260288
36.9947,260823
37.001,262564
37.0073,270716
37.0136,269821
37.02,260672
37.0263,271361
37.0326,274455
37.0389,270761
37.0452,266883
37.0515,264933
37.0578,264511
37.0641,267254
37.0704,264283
37.0767,265929
37.083,261624
37.0894,267855
37.0956,265583
37.102,262579
37.1083,266875
37.1146,268259
37.1209,260589
37.1272,266338
37.1335,262170
37.1398,263148
37.1461,269496
37.1524,266229
37.1588,269327
37.1651,265606
37.1714,270603
37.1777,262071
37.184,266322
37.1903,268950
37.1966,267708
37.2029,271633
37.2092,271347
37.2155,268470
37.2218,271045
37.2281,268045
37.2345,268905
37.2407,264659
37.2471,269571
37.2534,269635
37.2597,266738
37.266,263615
37.2723,263060
37.2786,265444
37.2849,269077
37.2912,263621
37.2975,263515
37.3038,271124
37.3102,266307
37.3165,268438
37.3228,265648
37.3291,264262
37.3354,262814
37.3417,265927
37.348,271477
37.3543,264423
37.3606,266260
37.3669,269823
37.3732,266426
37.3796,260849
37.3859,264709
37.3922,264118
37.3985,263968
37.4048,268078
37.4111,263618
37.4174,267018
37.4237,263651
37.43,262505
37.4363,271826
37.4426,267190
37.4489,265988
37.4552,262642
37.4616,261479
37.4679,262021
37.4742,266530
37.4805,263795
37.4868,264479
37.4931,270557
