D:\JEREMY\CHROMATOGRAMS\20201105_170701_OPALL2N_BLEND8\20201105_170701_OPALL2N_BLEND8_2MIN.d  5 Nov 20  10:22 am
Start of data points
3.89322,102915
3.89952,155251
3.90583,146323
3.91213,90301
3.91845,51764
3.92475,40394
3.93107,44890
3.93737,64647
3.94368,74375
3.94998,54101
3.9563,31241
3.9626,22037
3.96892,23220
3.97522,24980
3.98153,26601
3.98783,27107
3.99415,24548
4.00047,23713
4.00677,25822
4.01308,28374
4.01938,24149
4.0257,23649
4.032,22819
4.03832,22674
4.04462,25119
4.05093,25336
4.05723,28630
4.06355,28475
4.06985,27762
4.07617,26484
4.08247,27481
4.08878,26447
4.09508,26298
4.1014,22331
4.1077,20515
4.11402,17692
4.12032,18766
4.12663,21347
4.13293,33616
4.13925,62582
4.14555,89773
4.15187,84684
4.15817,56102
4.16448,33771
4.1708,23188
4.1771,19196
4.18342,18789
4.18972,14823
4.19603,14352
4.20233,12281
4.20865,12841
4.21495,14396
4.22127,13619
4.22757,14144
4.23388,12794
4.24018,13612
4.2465,12443
4.2528,14640
4.25912,15182
4.26542,14101
4.27173,14532
4.27803,13310
4.28435,13618
4.29065,12535
4.29697,15165
4.30327,16681
4.30958,17137
4.31588,15964
4.3222,15328
4.3285,14402
4.33482,13787
4.34112,15057
4.34743,17075
4.35375,18914
4.36005,21071
4.36637,23012
4.37267,19479
4.37898,18096
4.38528,14055
4.3916,15172
4.3979,14046
4.40422,16971
4.41052,24784
4.41683,49426
4.42313,86151
4.42945,108297
4.43575,90397
4.44207,55271
4.44837,31236
4.45468,16370
4.46098,13460
4.4673,13439
4.4736,13065
4.47992,15584
4.48622,16258
4.49253,18064
4.49883,14684
4.50515,13673
4.51145,17278
4.51777,20139
4.52408,17513
4.53038,16717
4.5367,15798
4.543,16557
4.54932,20047
4.55562,31194
4.56193,40843
4.56823,49654
4.57455,40717
4.58085,35142
4.58717,36172
4.59347,44844
4.59978,47304
4.60608,45677
4.6124,49488
4.6187,55126
4.62502,64250
4.63132,88970
4.63763,160964
4.64393,258930
4.65025,304298
4.65655,241598
4.66287,143068
4.66917,76030
4.67548,46802
4.68178,29761
4.6881,21781
4.69442,14837
4.70072,13244
4.70703,13286
4.71333,15876
4.71965,22319
4.72595,33404
4.73227,35596
4.73857,38497
4.74488,41834
4.75118,42987
4.7575,33938
4.7638,23640
4.77012,17797
4.77642,13477
4.78273,12666
4.78903,12740
4.79535,14118
4.80165,22784
4.80797,19905
4.81427,17911
4.82058,14274
4.82688,13762
4.8332,12967
4.8395,14826
4.84582,13333
4.85212,13382
4.85843,13486
4.86475,11641
4.87105,13200
4.87737,12433
4.88367,13442
4.88998,14703
4.89628,15782
4.9026,21322
4.9089,24786
4.91522,28958
4.92152,28755
4.92783,29423
4.93413,30482
4.94045,32273
4.94675,32778
4.95307,30497
4.95937,27488
4.96568,22651
4.97198,22689
4.9783,22779
4.9846,23073
4.99092,22473
4.99722,28231
5.00353,37269
5.00983,56802
5.01615,82755
5.02245,93625
5.02877,79962
5.03508,58172
5.04138,41338
5.0477,35593
5.054,32106
5.06032,30466
5.06662,27441
5.07293,26304
5.07923,26025
5.08555,27406
5.09185,27492
5.09817,31463
5.10447,36899
5.11078,49989
5.11708,74305
5.1234,85402
5.1297,82418
5.13602,71994
5.14232,56928
5.14863,47051
5.15493,45234
5.16125,42270
5.16755,42136
5.17387,36865
5.18017,35177
5.18648,33781
5.19278,31354
5.1991,32851
5.2054,33630
5.21172,36724
5.21803,39239
5.22433,46300
5.23065,60245
5.23695,109858
5.24327,187335
5.24957,240610
5.25588,232907
5.26218,178672
5.2685,111503
5.2748,64133
5.28112,41482
5.28742,30283
5.29373,29012
5.30003,29707
5.30635,34735
5.31265,49971
5.31897,96403
5.32527,131246
5.33158,143287
5.33788,124830
5.3442,82151
5.3505,61590
5.35682,61513
5.36312,95596
5.36943,150932
5.37573,189889
5.38205,184914
5.38837,132429
5.39467,74874
5.40098,48220
5.40728,40843
5.4136,41533
5.4199,80611
5.42622,114653
5.43252,133676
5.43883,122246
5.44513,89541
5.45145,59547
5.45775,36875
5.46407,22886
5.47037,23980
5.47668,22439
5.48298,20521
5.4893,20000
5.4956,20764
5.50192,24679
5.50822,32390
5.51453,33918
5.52083,33398
5.52715,30312
5.53345,27205
5.53977,22342
5.54607,18440
5.55238,16966
5.5587,19620
5.565,23316
5.57132,26302
5.57762,29272
5.58393,29024
5.59023,26099
5.59655,21909
5.60285,18738
5.60917,17968
5.61547,16574
5.62178,16831
5.62808,16670
5.6344,14450
5.6407,15745
5.64702,16096
5.65332,17378
5.65963,15561
5.66593,14680
5.67225,15283
5.67855,15496
5.68487,17089
5.69117,16530
5.69748,15694
5.70378,16723
5.7101,16225
5.7164,18677
5.72272,22768
5.72903,22439
5.73533,25198
5.74165,22606
5.74795,19485
5.75427,17619
5.76057,21972
5.76688,27892
5.77318,28590
5.7795,27916
5.7858,23352
5.79212,20445
5.79842,18533
5.80473,16977
5.81103,16488
5.81735,14354
5.82365,16077
5.82997,14651
5.83627,14736
5.84258,13667
5.84888,13625
5.8552,14784
5.8615,14331
5.86782,14858
5.87412,15535
5.88043,14458
5.88673,14380
5.89305,14150
5.89937,18419
5.90567,24280
5.91198,40448
5.91828,72262
5.9246,103231
5.9309,119303
5.93722,106723
5.94352,70996
5.94983,40113
5.95613,24163
5.96245,14873
5.96875,14533
5.97507,12953
5.98137,13787
5.98768,15256
5.99398,15084
6.0003,14527
6.0066,15216
6.01292,14263
6.01922,14209
6.02553,14506
6.03183,14520
6.03815,14420
6.04445,15927
6.05077,13828
6.05707,13758
6.06338,15605
6.06968,15222
6.076,15620
6.08232,13647
6.08862,13141
6.09493,14224
6.10123,14467
6.10755,14982
6.11385,15255
6.12017,17405
6.12647,19318
6.13278,20513
6.13908,21113
6.1454,20602
6.1517,19026
6.15802,18218
6.16432,15257
6.17063,13876
6.17693,13374
6.18325,13789
6.18955,14256
6.19587,12858
6.20217,12498
6.20848,15141
6.21478,14704
6.2211,14845
6.2274,14390
6.23372,14604
6.24002,16129
6.24633,14871
6.25265,13951
6.25895,17256
6.26527,16707
6.27157,16992
6.27788,18717
6.28418,19060
6.2905,21686
6.2968,23523
6.30312,29113
6.30942,30190
6.31573,31072
6.32203,28167
6.32835,25781
6.33465,25037
6.34097,23625
6.34727,20606
6.35358,18754
6.35988,15502
6.3662,14653
6.3725,15491
6.37882,15193
6.38512,15053
6.39143,15322
6.39773,13016
6.40405,15121
6.41035,14615
6.41667,12460
6.42298,15278
6.42928,15143
6.4356,15790
6.4419,18323
6.44822,20330
6.45452,29005
6.46083,43955
6.46713,57758
6.47345,69630
6.47975,65731
6.48607,53390
6.49237,40672
6.49868,28731
6.50498,23824
6.5113,21847
6.5176,22969
6.52392,27672
6.53022,36417
6.53653,51049
6.54283,69167
6.54915,89868
6.55545,114436
6.56177,145687
6.56807,171720
6.57438,205396
6.58068,235331
6.587,276481
6.59332,309834
6.59962,328969
6.60593,351469
6.61223,372209
6.61855,401828
6.62485,429425
6.63117,455868
6.63747,482489
6.64378,483931
6.65008,482435
6.6564,499949
6.6627,526282
6.66902,544115
6.67532,562298
6.68163,569096
6.68793,549714
6.69425,542602
6.70055,543419
6.70687,569915
6.71317,614883
6.71948,662803
6.72578,699292
6.7321,701293
6.7384,685455
6.74472,659003
6.75102,690780
6.75733,747070
6.76365,846459
6.76995,938580
6.77627,1020791
6.78257,1097946
6.78888,1141701
6.79518,1163402
6.8015,1177734
6.8078,1208432
6.81412,1251630
6.82042,1281602
6.82673,1328781
6.83303,1365506
6.83935,1435807
6.84565,1482506
6.85197,1517947
6.85827,1604624
6.86458,1690711
6.87088,1775697
6.8772,1880100
6.8835,1959859
6.88982,2051414
6.89612,2113934
6.90243,2226782
6.90873,2296775
6.91505,2356560
6.92135,2502381
6.92767,2574293
6.93397,2715161
6.94028,2860050
6.9466,3064769
6.9529,3249259
6.95922,3460837
6.96552,3689232
6.97183,3938361
6.97813,4149787
6.98445,4382914
6.99075,4571862
6.99707,4824325
7.00337,5027432
7.00968,5263133
7.01598,5441782
7.0223,5692685
7.0286,5754160
7.03492,6076808
7.04122,6388321
7.04753,6568852
7.05383,6735597
7.06015,6908886
7.06645,5896697
7.07277,906634
7.07907,517099
7.08538,510898
7.09168,509794
7.098,511266
7.1043,528054
7.11062,546664
7.11693,570254
7.12323,602904
7.12955,667607
7.13585,761677
7.14217,863723
7.14847,981444
7.15478,1139263
7.16108,1283055
7.1674,1457918
7.1737,1585069
7.18002,1759867
7.18632,1910729
7.19263,2067068
7.19893,2258720
7.20525,2442100
7.21155,2510639
7.21787,2493164
7.22417,2558439
7.23048,2647444
7.23678,2692951
7.2431,2704669
7.2494,2742084
7.25572,2686386
7.26202,1992666
7.26833,478438
7.27463,173042
7.28095,129668
7.28727,105548
7.29357,96215
7.29988,89298
7.30618,79689
7.3125,76968
7.3188,73446
7.32512,73926
7.33142,76554
7.33773,95491
7.34403,128062
7.35035,164783
7.35665,199663
7.36297,201817
7.36927,181588
7.37558,138604
7.38188,103652
7.3882,95571
7.3945,101508
7.40082,116117
7.40712,125990
7.41343,120229
7.41973,107591
7.42605,91999
7.43235,77378
7.43867,67139
7.44497,56103
7.45128,50824
7.4576,40756
7.4639,36377
7.47022,35829
7.47652,33200
7.48283,30507
7.48913,31978
7.49545,31445
7.50175,30787
7.50807,32701
7.51437,31566
7.52068,31677
7.52698,31059
7.5333,30625
7.5396,28643
7.54592,28528
7.55222,24812
7.55853,24618
7.56483,25019
7.57115,24132
7.57745,27396
7.58377,25814
7.59007,23503
7.59638,25122
7.60268,26141
7.609,25531
7.6153,24375
7.62162,26743
7.62793,26062
7.63423,26389
7.64055,24642
7.64685,24514
7.65317,22652
7.65947,24935
7.66578,23583
7.67208,23029
7.6784,23365
7.6847,23001
7.69102,22515
7.69732,22988
7.70363,22027
7.70993,21687
7.71625,20759
7.72255,18974
7.72887,19472
7.73517,21234
7.74148,20700
7.74778,20678
7.7541,20922
7.7604,20393
7.76672,20723
7.77302,19938
7.77933,22784
7.78563,22813
7.79195,25734
7.79825,28128
7.80457,24424
7.81088,23784
7.81718,21834
7.8235,18974
7.8298,20795
7.83612,18832
7.84242,18056
7.84873,20149
7.85503,21452
7.86135,21008
7.86765,20288
7.87397,22397
7.88027,21569
7.88658,20202
7.89288,20449
7.8992,19343
7.9055,18315
7.91182,18081
7.91812,17799
7.92443,16189
7.93073,17498
7.93705,17827
7.94335,16743
7.94967,17846
7.95597,18520
7.96228,18501
7.96858,19182
7.9749,24775
7.98122,26427
7.98752,26095
7.99383,24796
8.00013,24238
8.00645,23344
8.01275,22607
8.01907,25298
8.02537,27061
8.03168,29715
8.03798,37938
8.0443,52413
8.0506,76449
8.05692,100330
8.06322,116171
8.06953,110211
8.07583,87798
8.08215,61025
8.08845,40363
8.09477,30700
8.10107,22715
8.10738,20883
8.11368,16469
8.12,14928
8.1263,15740
8.13262,13509
8.13892,13798
8.14523,13337
8.15155,14904
8.15785,14352
8.16417,13217
8.17047,13760
8.17678,15055
8.18308,15772
8.1894,17691
8.1957,18355
8.20202,18252
8.20832,17727
8.21463,16443
8.22093,17683
8.22725,16593
8.23355,18063
8.23987,17345
8.24617,18017
8.25248,17535
8.25878,17167
8.2651,17004
8.2714,16456
8.27772,15174
8.28402,14709
8.29033,14253
8.29663,15152
8.30295,23520
8.30925,56710
8.31557,161605
8.32188,455397
8.32818,1101923
8.3345,2157796
8.3408,3639164
8.34712,5012615
8.35342,6127204
8.35973,6228025
8.36603,4822316
8.37235,2833330
8.37865,1209156
8.38497,409998
8.39127,110700
8.39758,33206
8.40388,17821
8.4102,14055
8.4165,14146
8.42282,13448
8.42912,14785
8.43543,14922
8.44173,14354
8.44805,12250
8.45435,12405
8.46067,12464
8.46697,11426
8.47328,11823
8.47958,10299
8.4859,11195
8.49222,12090
8.49852,12798
8.50483,15182
8.51113,24087
8.51745,30050
8.52375,37137
8.53007,34411
8.53637,33408
8.54268,28673
8.54898,26956
8.5553,23289
8.5616,20045
8.56792,18053
8.57422,17131
8.58053,15073
8.58683,16113
8.59315,17992
8.59945,18565
8.60577,18789
8.61207,18681
8.61838,16280
8.62468,16005
8.631,15559
8.6373,15412
8.64362,15211
8.64992,15189
8.65623,13125
8.66255,12145
8.66885,13571
8.67517,12311
8.68147,14120
8.68778,13645
8.69408,15457
8.7004,17393
8.7067,17395
8.71302,17353
8.71932,15416
8.72563,14429
8.73193,14518
8.73825,11775
8.74455,13355
8.75087,13310
8.75717,13318
8.76348,12645
8.76978,12727
8.7761,14448
8.7824,12927
8.78872,13533
8.79502,12955
8.80133,12012
8.80763,15204
8.81395,13570
8.82025,16512
8.82657,14446
8.83287,13175
8.83918,14680
8.8455,13874
8.8518,13163
8.85812,17508
8.86442,18606
8.87073,21287
8.87703,20649
8.88335,18393
8.88965,16056
8.89597,14099
8.90227,13206
8.90858,12989
8.91488,12473
8.9212,12863
8.9275,13286
8.93382,17785
8.94012,20823
8.94643,22278
8.95273,22670
8.95905,23358
8.96535,20349
8.97167,20867
8.97797,17870
8.98428,17225
8.99058,16875
8.9969,15156
9.0032,15477
9.00952,14342
9.01583,13943
9.02213,14475
9.02845,13868
9.03475,12535
9.04107,12724
9.04737,13875
9.05368,14672
9.05998,15131
9.0663,17415
9.0726,17836
9.07892,19427
9.08522,19516
9.09153,18741
9.09783,18037
9.10415,15526
9.11045,15078
9.11677,12838
9.12307,14326
9.12938,15006
9.13568,14997
9.142,12877
9.1483,14770
9.15462,17176
9.16092,19977
9.16723,26393
9.17353,29954
9.17985,35013
9.18617,39401
9.19247,40939
9.19878,39083
9.20508,32265
9.2114,25199
9.2177,16029
9.22402,14154
9.23032,11011
9.23663,10304
9.24293,10775
9.24925,10307
9.25555,13510
9.26187,15033
9.26817,15114
9.27448,15095
9.28078,14107
9.2871,15082
9.2934,14259
9.29972,13575
9.30602,14568
9.31233,14239
9.31863,13887
9.32495,13065
9.33125,13002
9.33757,11888
9.34387,12825
9.35018,13086
9.3565,13851
9.3628,15927
9.36912,14713
9.37542,15272
9.38173,13978
9.38803,14574
9.39435,15511
9.40065,23931
9.40697,31949
9.41327,53506
9.41958,79847
9.42588,103521
9.4322,113482
9.4385,104852
9.44482,83066
9.45112,62266
9.45743,38575
9.46373,27699
9.47005,18344
9.47635,16140
9.48267,12559
9.48897,9909
9.49528,9654
9.50158,9985
9.5079,10958
9.5142,9438
9.52052,9047
9.52683,8267
9.53313,10348
9.53945,9448
9.54575,10660
9.55207,10571
9.55837,9948
9.56468,9664
9.57098,8872
9.5773,10880
9.5836,11169
9.58992,11704
9.59622,11703
9.60253,11622
9.60883,11530
9.61515,10314
9.62145,9755
9.62777,10396
9.63407,10783
9.64038,10520
9.64668,11660
9.653,11748
9.6593,11853
9.66562,9291
9.67192,9366
9.67823,9243
9.68453,9247
9.69085,8157
9.69715,8350
9.70347,9692
9.70978,8834
9.71608,7664
9.7224,8357
9.7287,8112
9.73502,7751
9.74132,10155
9.74763,9982
9.75393,10450
9.76025,10336
9.76655,10125
9.77287,11500
9.77917,16824
9.78548,27383
9.79178,41684
9.7981,58507
9.8044,66341
9.81072,63935
9.81702,54802
9.82333,39495
9.82963,29804
9.83595,21670
9.84225,21006
9.84857,24188
9.85487,19348
9.86118,16362
9.86748,15004
9.8738,12045
9.88012,10007
9.88642,8331
9.89273,8222
9.89903,9569
9.90535,9263
9.91165,9328
9.91797,12316
9.92427,12599
9.93058,15013
9.93688,13823
9.9432,13897
9.9495,14443
9.95582,14021
9.96212,16258
9.96843,21397
9.97473,28708
9.98105,36424
9.98735,39498
9.99367,39656
9.99997,34876
10.0063,27240
10.0126,18100
10.0189,14644
10.0252,10495
10.0315,9072
10.0378,6882
10.0441,7513
10.0505,8796
10.0568,8399
10.0631,7247
10.0694,10360
10.0757,12518
10.082,13835
10.0883,22383
10.0946,29381
10.1009,33341
10.1072,37168
10.1135,36055
10.1198,33345
10.1262,30296
10.1325,26400
10.1388,25780
10.1451,22030
10.1514,21370
10.1577,19860
10.164,19347
10.1703,20411
10.1766,19880
10.1829,16633
10.1892,15828
10.1955,14897
10.2019,13377
10.2082,11422
10.2145,12071
10.2208,11309
10.2271,12494
10.2334,15039
10.2397,15624
10.246,19361
10.2523,20151
10.2586,21686
10.2649,21263
10.2713,20386
10.2776,17510
10.2839,15676
10.2902,14571
10.2965,15615
10.3028,20060
10.3091,25041
10.3154,33365
10.3217,44696
10.328,56090
10.3343,75478
10.3406,95765
10.347,119648
10.3533,145598
10.3596,166600
10.3659,178496
10.3722,216892
10.3785,319416
10.3848,574898
10.3911,1112997
10.3974,1943375
10.4037,3044756
10.41,4127871
10.4164,4782204
10.4227,4705458
10.429,3807163
10.4353,2540713
10.4416,1411667
10.4479,699516
10.4542,320303
10.4605,162949
10.4668,100932
10.4731,77224
10.4794,60294
10.4857,43664
10.4921,30711
10.4984,23391
10.5047,19836
10.511,17523
10.5173,18535
10.5236,20850
10.5299,20253
10.5362,19588
10.5425,17432
10.5488,15505
10.5551,13462
10.5614,14417
10.5678,16447
10.5741,17903
10.5804,21072
10.5867,23486
10.593,26408
10.5993,27336
10.6056,27636
10.6119,27907
10.6182,28630
10.6245,34230
10.6308,41716
10.6372,48163
10.6435,54958
10.6498,59822
10.6561,54065
10.6624,48140
10.6687,34137
10.675,26383
10.6813,20797
10.6876,19299
10.6939,16120
10.7002,16260
10.7065,18026
10.7129,21195
10.7192,26175
10.7255,33079
10.7318,34478
10.7381,33877
10.7444,35735
10.7507,33253
10.757,37972
10.7633,51477
10.7696,78398
10.7759,110483
10.7823,140803
10.7886,154035
10.7949,136473
10.8012,112461
10.8075,79465
10.8138,49486
10.8201,30559
10.8264,20313
10.8327,16475
10.839,14340
10.8453,13545
10.8516,15428
10.858,14784
10.8643,15627
10.8706,17102
10.8769,18002
10.8832,18047
10.8895,29390
10.8958,63698
10.9021,174789
10.9084,458426
10.9147,1067390
10.921,2156802
10.9274,3841579
10.9337,5675617
10.94,7339691
10.9463,7928038
10.9526,7472149
10.9589,5671537
10.9652,3460641
10.9715,1727353
10.9778,695400
10.9841,241654
10.9904,77665
10.9967,31805
11.0031,17363
11.0094,14786
11.0157,11056
11.022,11625
11.0283,11924
11.0346,11465
11.0409,12888
11.0472,12738
11.0535,14456
11.0598,23192
11.0661,41633
11.0724,74772
11.0788,106228
11.0851,139602
11.0914,151111
11.0977,134607
11.104,100221
11.1103,65456
11.1166,49087
11.1229,48701
11.1292,69514
11.1355,99124
11.1418,127568
11.1482,141781
11.1545,139105
11.1608,132851
11.1671,138025
11.1734,192412
11.1797,307639
11.186,464336
11.1923,625615
11.1986,790927
11.2049,936352
11.2112,1191140
11.2175,1617575
11.2239,2259592
11.2302,2850393
11.2365,3186304
11.2428,2986342
11.2491,2323338
11.2554,1415442
11.2617,697959
11.268,297110
11.2743,121005
11.2806,52698
11.2869,31748
11.2933,23779
11.2996,23481
11.3059,30531
11.3122,40946
11.3185,53176
11.3248,66475
11.3311,82400
11.3374,131423
11.3437,292469
11.35,633273
11.3563,1263228
11.3626,2085010
11.369,2900952
11.3753,3381042
11.3816,3283337
11.3879,2607638
11.3942,1692876
11.4005,1001653
11.4068,637877
11.4131,511318
11.4194,483908
11.4257,431597
11.432,356843
11.4384,270952
11.4447,206036
11.451,155761
11.4573,127114
11.4636,108011
11.4699,98362
11.4762,110246
11.4825,130236
11.4888,136746
11.4951,126682
11.5014,110752
11.5077,86717
11.5141,72880
11.5204,70538
11.5267,66229
11.533,67895
11.5393,59139
11.5456,53022
11.5519,50016
11.5582,45397
11.5645,42564
11.5708,40880
11.5771,43256
11.5834,40222
11.5898,36636
11.5961,34956
11.6024,29631
11.6087,25945
11.615,23125
11.6213,26084
11.6276,31765
11.6339,34178
11.6402,39431
11.6465,51286
11.6528,87311
11.6592,165497
11.6655,299772
11.6718,499464
11.6781,716194
11.6844,840602
11.6907,819933
11.697,667225
11.7033,455836
11.7096,284936
11.7159,158946
11.7222,99303
11.7285,77402
11.7349,68698
11.7412,66761
11.7475,65174
11.7538,62873
11.7601,55248
11.7664,43617
11.7727,36547
11.779,30751
11.7853,24038
11.7916,20031
11.7979,25196
11.8043,55520
11.8106,145530
11.8169,372717
11.8232,904710
11.8295,1910394
11.8358,3390029
11.8421,5153364
11.8484,6807930
11.8547,7871362
11.861,7853185
11.8673,6730433
11.8736,4819474
11.88,3039941
11.8863,1756350
11.8926,980175
11.8989,702889
11.9052,746314
11.9115,1073169
11.9178,1628751
11.9241,2324641
11.9304,2973040
11.9367,3338284
11.943,3139112
11.9494,2361382
11.9557,1486851
11.962,782591
11.9683,376896
11.9746,185154
11.9809,119424
11.9872,100826
11.9935,95000
11.9998,96399
12.0061,91246
12.0124,82328
12.0187,69706
12.0251,49749
12.0314,38254
12.0377,36960
12.044,49386
12.0503,75248
12.0566,107258
12.0629,130651
12.0692,146111
12.0755,132121
12.0818,107450
12.0881,71906
12.0944,49587
12.1008,38597
12.1071,41057
12.1134,46384
12.1197,50473
12.126,56651
12.1323,62580
12.1386,70513
12.1449,82798
12.1512,95047
12.1575,105224
12.1638,97741
12.1702,90116
12.1765,73517
12.1828,61690
12.1891,58067
12.1954,54468
12.2017,53647
12.208,44751
12.2143,35939
12.2206,27964
12.2269,23696
12.2332,18901
12.2395,16869
12.2459,16729
12.2522,19607
12.2585,26549
12.2648,38836
12.2711,59830
12.2774,113204
12.2837,186082
12.29,278191
12.2963,377941
12.3026,437139
12.3089,434877
12.3153,383041
12.3216,287626
12.3279,203020
12.3342,133781
12.3405,86887
12.3468,52418
12.3531,37524
12.3594,28706
12.3657,27468
12.372,28929
12.3783,36347
12.3846,43037
12.391,48081
12.3973,50538
12.4036,49983
12.4099,44597
12.4162,34271
12.4225,26757
12.4288,21410
12.4351,14561
12.4414,13361
12.4477,11346
12.454,12032
12.4603,11484
12.4667,12155
12.473,13172
12.4793,14762
12.4856,17205
12.4919,17795
12.4982,18778
12.5045,19021
12.5108,17871
12.5171,18042
12.5234,18767
12.5297,23915
12.5361,28118
12.5424,39461
12.5487,57731
12.555,82546
12.5613,111785
12.5676,142360
12.5739,165103
12.5802,163677
12.5865,171965
12.5928,163853
12.5991,159268
12.6054,141876
12.6118,137476
12.6181,127734
12.6244,121199
12.6307,114551
12.637,103960
12.6433,96362
12.6496,94072
12.6559,93123
12.6622,93968
12.6685,94285
12.6748,94156
12.6812,89010
12.6875,90065
12.6938,101669
12.7001,141252
12.7064,222657
12.7127,321325
12.719,440268
12.7253,547203
12.7316,679082
12.7379,762647
12.7442,823753
12.7505,856270
12.7569,866415
12.7632,904464
12.7695,916754
12.7758,947760
12.7821,960959
12.7884,958026
12.7947,995658
12.801,1115895
12.8073,1485003
12.8136,2406556
12.8199,4097018
12.8263,6970880
12.8326,10911866
12.8389,15512502
12.8452,20417154
12.8515,25059942
12.8578,30186124
12.8641,34304924
12.8704,37975512
12.8767,40680912
12.883,43314452
12.8893,45673700
12.8956,47410760
12.902,49103052
12.9083,50235392
12.9146,51118324
12.9209,52300940
12.9272,53269688
12.9335,54312644
12.9398,54563920
12.9461,55495992
12.9524,56068900
12.9587,56318828
12.965,51824912
12.9713,25646552
12.9777,12283132
12.984,15170114
12.9903,19617920
12.9966,24202722
13.0029,28175650
13.0092,31556262
13.0155,35488228
13.0218,38336480
13.0281,40792824
13.0344,42674056
13.0407,40715684
13.0471,29796310
13.0534,10658788
13.0597,1920249
13.066,289782
13.0723,89006
13.0786,63756
13.0849,53783
13.0912,51453
13.0975,44502
13.1038,41679
13.1101,41381
13.1164,40188
13.1228,43327
13.1291,69189
13.1354,76894
13.1417,83213
13.148,86227
13.1543,82654
13.1606,78052
13.1669,71232
13.1732,61409
13.1795,55317
13.1858,52886
13.1922,46359
13.1985,44268
13.2048,44108
13.2111,42519
13.2174,42622
13.2237,39536
13.23,38160
13.2363,37472
13.2426,37304
13.2489,34890
13.2552,36801
13.2615,37799
13.2679,40485
13.2742,45453
13.2805,58581
13.2868,95081
13.2931,217051
13.2994,551192
13.3057,1332958
13.312,2795786
13.3183,5124649
13.3246,8334721
13.3309,12029611
13.3373,16604837
13.3436,20928432
13.3499,25577076
13.3562,29592252
13.3625,32954764
13.3688,35445320
13.3751,38443640
13.3814,41160560
13.3877,43863640
13.394,45773728
13.4003,47357364
13.4066,49520908
13.413,50910560
13.4193,51550948
13.4256,51802160
13.4319,44448796
13.4382,14870562
13.4445,1542957
13.4508,240133
13.4571,145171
13.4634,118847
13.4697,92054
13.476,73355
13.4823,61992
13.4887,50930
13.495,56826
13.5013,57568
13.5076,60484
13.5139,60430
13.5202,60936
13.5265,54254
13.5328,44963
13.5391,40549
13.5454,33280
13.5517,31153
13.5581,30221
13.5644,28907
13.5707,28711
13.577,30794
13.5833,42103
13.5896,54757
13.5959,80986
13.6022,116442
13.6085,158936
13.6148,191724
13.6211,201547
13.6274,198559
13.6338,198947
13.6401,211379
13.6464,252779
13.6527,299383
13.659,342860
13.6653,349472
13.6716,326545
13.6779,280509
13.6842,227344
13.6905,167403
13.6968,106778
13.7032,70144
13.7095,57271
13.7158,53372
13.7221,66383
13.7284,82578
13.7347,99098
13.741,105057
13.7473,93073
13.7536,75690
13.7599,61276
13.7662,45889
13.7725,41299
13.7789,45036
13.7852,52644
13.7915,67536
13.7978,81434
13.8041,87752
13.8104,84834
13.8167,68612
13.823,52933
13.8293,39744
13.8356,29026
13.8419,20253
13.8483,19480
13.8546,16648
13.8609,15662
13.8672,16277
13.8735,16124
13.8798,19825
13.8861,26926
13.8924,38878
13.8987,59801
13.905,91671
13.9113,132471
13.9176,166051
13.924,189618
13.9303,187943
13.9366,156604
13.9429,120035
13.9492,89951
13.9555,64839
13.9618,52748
13.9681,45158
13.9744,40647
13.9807,33594
13.987,31016
13.9933,26175
13.9997,23914
14.006,19746
14.0123,18808
14.0186,18457
14.0249,22408
14.0312,28632
14.0375,48923
14.0438,91111
14.0501,151332
14.0564,234745
14.0627,326647
14.0691,388579
14.0754,412749
14.0817,366733
14.088,290685
14.0943,200730
14.1006,134604
14.1069,80867
14.1132,55138
14.1195,40434
14.1258,33835
14.1321,29668
14.1384,26731
14.1448,27321
14.1511,28350
14.1574,33333
14.1637,39053
14.17,45043
14.1763,52733
14.1826,59665
14.1889,62581
14.1952,58123
14.2015,54386
14.2078,40854
14.2142,36395
14.2205,28828
14.2268,25111
14.2331,23741
14.2394,21990
14.2457,22161
14.252,19964
14.2583,23940
14.2646,26872
14.2709,33413
14.2772,38130
14.2835,44177
14.2899,48964
14.2962,52972
14.3025,57751
14.3088,67575
14.3151,76537
14.3214,91224
14.3277,99574
14.334,101945
14.3403,96431
14.3466,82247
14.3529,65573
14.3592,49071
14.3656,39266
14.3719,34149
14.3782,28143
14.3845,26308
14.3908,21750
14.3971,18636
14.4034,18674
14.4097,15552
14.416,16427
14.4223,15090
14.4286,17254
14.435,26521
14.4413,30133
14.4476,41837
14.4539,66499
14.4602,93628
14.4665,127104
14.4728,166490
14.4791,212620
14.4854,245903
14.4917,270179
14.498,251576
14.5043,209070
14.5107,163090
14.517,112354
14.5233,70247
14.5296,43979
14.5359,28311
14.5422,20029
14.5485,19869
14.5548,23903
14.5611,30071
14.5674,40585
14.5737,48228
14.5801,57157
14.5864,70801
14.5927,80982
14.599,91867
14.6053,97474
14.6116,107131
14.6179,113426
14.6242,116636
14.6305,111500
14.6368,104885
14.6431,96442
14.6494,85940
14.6558,73388
14.6621,66245
14.6684,52907
14.6747,39603
14.681,32040
14.6873,23503
14.6936,19482
14.6999,17839
14.7062,16798
14.7125,15621
14.7188,13441
14.7252,15706
14.7315,14224
14.7378,15030
14.7441,14079
14.7504,13224
14.7567,11519
14.763,12641
14.7693,12655
14.7756,13637
14.7819,18662
14.7882,24488
14.7945,35476
14.8009,55139
14.8072,79834
14.8135,109310
14.8198,157249
14.8261,203934
14.8324,246980
14.8387,280252
14.845,283319
14.8513,261421
14.8576,221473
14.8639,173787
14.8702,128605
14.8766,99354
14.8829,81701
14.8892,70472
14.8955,65889
14.9018,60246
14.9081,56696
14.9144,53544
14.9207,47598
14.927,42325
14.9333,36768
14.9396,30332
14.946,23995
14.9523,16647
14.9586,16633
14.9649,15956
14.9712,18549
14.9775,18781
14.9838,21875
14.9901,25855
14.9964,29545
15.0027,31246
15.009,29990
15.0153,31778
15.0217,28255
15.028,26949
15.0343,27044
15.0406,24992
15.0469,28266
15.0532,31690
15.0595,32542
15.0658,37602
15.0721,38509
15.0784,40844
15.0847,45045
15.0911,47039
15.0974,50521
15.1037,63136
15.11,73468
15.1163,83316
15.1226,108730
15.1289,128611
15.1352,152312
15.1415,170923
15.1478,179777
15.1541,180515
15.1604,159287
15.1668,130828
15.1731,103860
15.1794,79681
15.1857,59333
15.192,44787
15.1983,31903
15.2046,25236
15.2109,22135
15.2172,19712
15.2235,19677
15.2298,18789
15.2362,19564
15.2425,18624
15.2488,23220
15.2551,34786
15.2614,65182
15.2677,141004
15.274,299686
15.2803,588100
15.2866,1044359
15.2929,1679452
15.2992,2377178
15.3055,3042295
15.3119,3823223
15.3182,4549846
15.3245,5529531
15.3308,6306880
15.3371,7122940
15.3434,7910712
15.3497,8049240
15.356,7364374
15.3623,5866262
15.3686,3872782
15.3749,2040557
15.3812,930038
15.3876,395909
15.3939,179699
15.4002,104174
15.4065,78224
15.4128,63144
15.4191,57107
15.4254,53665
15.4317,46787
15.438,45625
15.4443,39216
15.4506,39001
15.457,34368
15.4633,32166
15.4696,31582
15.4759,27462
15.4822,28088
15.4885,25448
15.4948,21990
15.5011,21805
15.5074,21567
15.5137,20798
15.52,21422
15.5263,21247
15.5327,25367
15.539,26628
15.5453,32448
15.5516,31575
15.5579,39989
15.5642,41167
15.5705,48171
15.5768,52791
15.5831,54723
15.5894,58862
15.5957,58061
15.6021,56500
15.6084,52051
15.6147,49784
15.621,42774
15.6273,44270
15.6336,46833
15.6399,48516
15.6462,49280
15.6525,46981
15.6588,42590
15.6651,37510
15.6714,34284
15.6778,25662
15.6841,20157
15.6904,18534
15.6967,17034
15.703,17816
15.7093,17521
15.7156,16889
15.7219,15182
15.7282,15692
15.7345,16398
15.7408,17441
15.7471,18637
15.7535,18895
15.7598,20721
15.7661,21271
15.7724,20597
15.7787,19454
15.785,16717
15.7913,17154
15.7976,15455
15.8039,16626
15.8102,13839
15.8165,14664
15.8229,14918
15.8292,16429
15.8355,18062
15.8418,17602
15.8481,17258
15.8544,17764
15.8607,16207
15.867,15475
15.8733,15534
15.8796,14082
15.8859,12477
15.8922,11577
15.8986,10889
15.9049,10683
15.9112,10283
15.9175,9286
15.9238,10160
15.9301,8259
15.9364,9559
15.9427,10850
15.949,8852
15.9553,9277
15.9616,7861
15.968,8697
15.9743,9203
15.9806,11739
15.9869,12589
15.9932,13134
15.9995,19123
16.0058,29019
16.0121,42283
16.0184,57676
16.0247,89058
16.031,116817
16.0373,153604
16.0437,214262
16.0499,301543
16.0563,454454
16.0626,676322
16.0689,1042631
16.0752,1475820
16.0815,1906110
16.0878,2218180
16.0941,2207519
16.1004,1968877
16.1067,1423846
16.1131,945412
16.1194,538746
16.1257,281638
16.132,151957
16.1383,98763
16.1446,81851
16.1509,71479
16.1572,59413
16.1635,51363
16.1698,44761
16.1761,39646
16.1824,34313
16.1887,30213
16.195,30011
16.2014,29361
16.2077,28002
16.214,29582
16.2203,28012
16.2266,30386
16.2329,31085
16.2392,30037
16.2455,31241
16.2518,34088
16.2581,33531
16.2645,34612
16.2708,35778
16.2771,37703
16.2834,39743
16.2897,38933
16.296,38148
16.3023,38533
16.3086,39652
16.3149,38477
16.3212,40296
16.3275,43186
16.3339,47833
16.3402,51281
16.3465,58701
16.3528,66950
16.3591,79686
16.3654,89172
16.3717,105828
16.378,120151
16.3843,139174
16.3906,157490
16.3969,168894
16.4032,180492
16.4095,179976
16.4158,182747
16.4222,174382
16.4285,173642
16.4348,177150
16.4411,181252
16.4474,188862
16.4537,198417
16.46,217797
16.4663,232159
16.4726,229938
16.479,222425
16.4853,191643
16.4916,151574
16.4979,106122
16.5042,75093
16.5105,50802
16.5168,40433
16.5231,29678
16.5294,28950
16.5357,26726
16.542,23777
16.5483,23699
16.5546,21352
16.5609,21026
16.5673,20713
16.5736,19108
16.5799,18627
16.5862,18779
16.5925,17770
16.5988,17614
16.6051,16434
16.6114,17198
16.6177,17338
16.6241,16225
16.6304,13519
16.6367,15726
16.643,14374
16.6493,14101
16.6556,15719
16.6619,16502
16.6682,18722
16.6745,20203
16.6808,19814
16.6871,19996
16.6934,23038
16.6998,20473
16.7061,21079
16.7124,21085
16.7187,17333
16.725,17444
16.7313,14786
16.7376,16006
16.7439,13771
16.7502,15799
16.7565,12526
16.7628,13687
16.7691,12629
16.7754,13576
16.7817,13278
16.7881,14813
16.7944,14312
16.8007,14737
16.807,12831
16.8133,12094
16.8196,12890
16.8259,12069
16.8322,11843
16.8385,13506
16.8449,14032
16.8512,13055
16.8575,13738
16.8638,14433
16.8701,15519
16.8764,15666
16.8827,14757
16.889,15946
16.8953,15752
16.9016,14986
16.9079,15826
16.9142,14199
16.9205,13180
16.9269,13766
16.9332,14428
16.9395,16117
16.9458,17177
16.9521,18655
16.9584,19266
16.9647,18787
16.971,21073
16.9773,21723
16.9836,25063
16.99,25989
16.9963,30042
17.0026,30765
17.0089,31523
17.0152,31410
17.0215,32344
17.0278,29062
17.0341,25805
17.0404,25611
17.0467,24031
17.053,24647
17.0593,23517
17.0657,26968
17.072,28460
17.0783,30486
17.0846,30364
17.0909,30714
17.0972,30586
17.1035,26646
17.1098,24021
17.1161,20501
17.1224,19124
17.1287,17897
17.1351,16938
17.1413,20891
17.1477,25516
17.154,31279
17.1603,38641
17.1666,51378
17.1729,60043
17.1792,70626
17.1855,81118
17.1918,100694
17.1981,118743
17.2044,134530
17.2108,157617
17.2171,174737
17.2234,196315
17.2297,212934
17.236,215324
17.2423,200463
17.2486,167704
17.2549,139414
17.2612,103785
17.2675,71625
17.2738,55524
17.2801,41222
17.2864,32860
17.2928,25629
17.2991,21911
17.3054,18548
17.3117,15199
17.318,16109
17.3243,12292
17.3306,11728
17.3369,9834
17.3432,9675
17.3495,10243
17.3559,11009
17.3622,9052
17.3685,9477
17.3748,10128
17.3811,10588
17.3874,11701
17.3937,11427
17.4,11315
17.4063,12229
17.4126,12671
17.4189,13080
17.4252,13546
17.4316,13455
17.4379,16808
17.4442,16354
17.4505,16830
17.4568,20320
17.4631,21104
17.4694,23306
17.4757,25051
17.482,23145
17.4883,21948
17.4946,22444
17.501,20327
17.5072,18334
17.5136,18765
17.5199,17710
17.5262,16653
17.5325,15033
17.5388,14328
17.5451,13270
17.5514,14338
17.5577,13111
17.564,12492
17.5703,12386
17.5767,10998
17.583,10444
17.5893,10396
17.5956,12117
17.6019,10727
17.6082,10700
17.6145,13431
17.6208,11556
17.6271,12290
17.6334,13813
17.6397,13847
17.646,12354
17.6524,13275
17.6587,12073
17.665,13047
17.6713,10922
17.6776,9319
17.6839,10693
17.6902,10570
17.6965,9757
17.7028,12911
17.7091,14577
17.7154,18614
17.7218,22874
17.7281,23113
17.7344,27234
17.7407,31909
17.747,32362
17.7533,38474
17.7596,46201
17.7659,52092
17.7722,56879
17.7785,64006
17.7848,67362
17.7911,75449
17.7975,81443
17.8038,78355
17.8101,74922
17.8164,63172
17.8227,53418
17.829,41234
17.8353,34890
17.8416,27962
17.8479,25290
17.8542,23658
17.8605,24676
17.8668,26542
17.8732,24583
17.8795,27048
17.8858,29201
17.8921,27299
17.8984,28160
17.9047,27672
17.911,29281
17.9173,29068
17.9236,27887
17.9299,29847
17.9362,31516
17.9426,32927
17.9489,29870
17.9552,32238
17.9615,34372
17.9678,30517
17.9741,28519
17.9804,28972
17.9867,24705
17.993,22715
17.9993,20500
18.0056,20105
18.012,17348
18.0183,17221
18.0246,22634
18.0309,39505
18.0372,79409
18.0435,178029
18.0498,401856
18.0561,859088
18.0624,1625426
18.0687,2599037
18.075,3873245
18.0813,5331862
18.0877,6961972
18.094,8453961
18.1003,9916364
18.1066,11625618
18.1129,12696339
18.1192,13903985
18.1255,15470780
18.1318,16982042
18.1381,18409790
18.1444,19481260
18.1507,21147314
18.157,22166632
18.1634,23822760
18.1697,24712622
18.176,26930684
18.1823,27425456
18.1886,29441994
18.1949,31204372
18.2012,32041616
18.2075,32175410
18.2138,27777520
18.2201,17344502
18.2264,6922898
18.2327,2237327
18.2391,860040
18.2454,475506
18.2517,341015
18.258,275259
18.2643,238534
18.2706,204582
18.2769,183308
18.2832,165573
18.2895,151203
18.2958,144853
18.3021,132714
18.3085,125385
18.3148,118658
18.3211,110799
18.3274,103551
18.3337,100317
18.34,96973
18.3463,91959
18.3526,94394
18.3589,87725
18.3652,84479
18.3715,82900
18.3779,82961
18.3842,80477
18.3905,80308
18.3968,80946
18.4031,80453
18.4094,79744
18.4157,84895
18.422,82413
18.4283,75355
18.4346,73913
18.4409,72230
18.4472,68048
18.4536,61161
18.4598,55162
18.4662,55301
18.4725,50734
18.4788,47969
18.4851,48396
18.4914,44552
18.4977,43590
18.504,45062
18.5103,46724
18.5166,56365
18.523,73539
18.5293,99656
18.5356,140936
18.5419,186791
18.5482,239329
18.5545,298656
18.5608,339519
18.5671,385498
18.5734,445862
18.5797,515838
18.586,590583
18.5923,688613
18.5986,821580
18.605,961436
18.6113,1076513
18.6176,1141739
18.6239,1145128
18.6302,1081348
18.6365,899817
18.6428,679749
18.6491,487414
18.6554,307956
18.6617,177898
18.668,109527
18.6744,72104
18.6807,56425
18.687,46081
18.6933,39997
18.6996,38339
18.7059,37313
18.7122,35428
18.7185,34623
18.7248,34502
18.7311,34591
18.7374,31795
18.7438,32730
18.7501,31568
18.7564,30008
18.7627,31772
18.769,30664
18.7753,29445
18.7816,31210
18.7879,29948
18.7942,30770
18.8005,32265
18.8068,31177
18.8131,30903
18.8195,32964
18.8257,30878
18.8321,31596
18.8384,28953
18.8447,25831
18.851,24663
18.8573,23709
18.8636,24709
18.8699,22958
18.8762,23002
18.8825,23984
18.8889,23953
18.8952,24644
18.9015,25117
18.9078,23656
18.9141,24257
18.9204,21908
18.9267,21876
18.933,22606
18.9393,21803
18.9456,19638
18.9519,19792
18.9582,19888
18.9646,19784
18.9709,18602
18.9772,19839
18.9835,19969
18.9898,19745
18.9961,21337
19.0024,21105
19.0087,20224
19.015,19730
19.0213,19083
19.0276,20694
19.034,20880
19.0403,21121
19.0466,20608
19.0529,20354
19.0592,21308
19.0655,23355
19.0718,22516
19.0781,23788
19.0844,24652
19.0907,23698
19.097,25384
19.1033,26800
19.1097,27120
19.116,26723
19.1223,27892
19.1286,28359
19.1349,30672
19.1412,32076
19.1475,31955
19.1538,30428
19.1601,29575
19.1664,27415
19.1727,23857
19.179,22904
19.1854,21755
19.1916,20069
19.198,17199
19.2043,17245
19.2106,17956
19.2169,18833
19.2232,17273
19.2295,19407
19.2358,19768
19.2421,20100
19.2484,20017
19.2548,21406
19.2611,20629
19.2674,21629
19.2737,24519
19.28,24507
19.2863,23459
19.2926,25071
19.2989,27822
19.3052,26387
19.3115,28781
19.3178,30394
19.3241,28139
19.3305,29285
19.3368,29849
19.3431,27917
19.3494,27709
19.3557,25632
19.362,25821
19.3683,23613
19.3746,26359
19.3809,25507
19.3872,21904
19.3935,23184
19.3999,20874
19.4062,20134
19.4125,18469
19.4188,19156
19.4251,18052
19.4314,17477
19.4377,15759
19.444,15561
19.4503,16920
19.4566,16052
19.4629,15786
19.4692,15070
19.4756,14769
19.4819,15353
19.4882,14743
19.4945,15416
19.5008,13498
19.5071,15736
19.5134,16000
19.5197,17264
19.526,16060
19.5323,14554
19.5386,15167
19.5449,16231
19.5513,16843
19.5576,17703
19.5639,17495
19.5702,17307
19.5765,18315
19.5828,18527
19.5891,19156
19.5954,20568
19.6017,21759
19.608,21488
19.6143,23438
19.6207,28437
19.627,30388
19.6333,37539
19.6396,43544
19.6459,54440
19.6522,64965
19.6585,77661
19.6648,88535
19.6711,101337
19.6774,118922
19.6837,134015
19.69,153422
19.6964,178513
19.7027,204225
19.709,235685
19.7153,272256
19.7216,324109
19.7279,376558
19.7342,423252
19.7405,472968
19.7468,512652
19.7531,510667
19.7594,478753
19.7658,404426
19.7721,332085
19.7784,253741
19.7847,195316
19.791,139974
19.7973,110145
19.8036,89999
19.8099,71894
19.8162,64314
19.8225,56271
19.8288,55619
19.8351,47134
19.8415,42650
19.8478,43169
19.8541,38670
19.8604,38266
19.8667,37693
19.873,36420
19.8793,35721
19.8856,34421
19.8919,33857
19.8982,32272
19.9045,32017
19.9109,30635
19.9171,29483
19.9235,26460
19.9298,25553
19.9361,25674
19.9424,26793
19.9487,22833
19.955,22430
19.9613,23216
19.9676,22515
19.9739,24348
19.9802,26517
19.9866,28945
19.9929,30707
19.9992,34405
20.0055,38737
20.0118,52214
20.0181,67893
20.0244,83962
20.0307,108983
20.037,139421
20.0433,164595
20.0496,195239
20.0559,226693
20.0623,257323
20.0686,285415
20.0749,326575
20.0812,371674
20.0875,427290
20.0938,497916
20.1001,577490
20.1064,669610
20.1127,754235
20.119,840600
20.1253,861526
20.1317,854471
20.138,787602
20.1443,692349
20.1506,571032
20.1569,465173
20.1632,358063
20.1695,278629
20.1758,211380
20.1821,181723
20.1884,174007
20.1947,179362
20.201,199227
20.2074,228645
20.2137,254133
20.22,294335
20.2263,334171
20.2326,375424
20.2389,414567
20.2452,460619
20.2515,517008
20.2578,592138
20.2641,628757
20.2704,719687
20.2768,808289
20.283,925671
20.2894,1025207
20.2957,1114632
20.302,1108742
20.3083,1069165
20.3146,940736
20.3209,735221
20.3272,541912
20.3335,365574
20.3398,226733
20.3461,140997
20.3525,87688
20.3588,63313
20.3651,51981
20.3714,46046
20.3777,44213
20.384,40601
20.3903,40578
20.3966,39709
20.4029,36494
20.4092,37103
20.4155,37377
20.4219,36358
20.4282,34776
20.4345,36268
20.4408,34789
20.4471,33632
20.4534,31976
20.4597,32261
20.466,30959
20.4723,30428
20.4786,30121
20.4849,30611
20.4912,33705
20.4976,32132
20.5039,31160
20.5102,30235
20.5165,29205
20.5228,29001
20.5291,28071
20.5354,27451
20.5417,26359
20.548,25949
20.5543,27486
20.5606,29055
20.5669,30851
20.5733,32028
20.5796,35260
20.5859,38689
20.5922,42789
20.5985,45207
20.6048,43600
20.6111,45508
20.6174,47659
20.6237,49646
20.63,53840
20.6363,57731
20.6427,55251
20.6489,61714
20.6553,67244
20.6616,71305
20.6679,78976
20.6742,86392
20.6805,88344
20.6868,91621
20.6931,83920
20.6994,74151
20.7057,59118
20.712,45702
20.7184,34089
20.7247,25317
20.731,22433
20.7373,20309
20.7436,19802
20.7499,19190
20.7562,20183
20.7625,19802
20.7688,18181
20.7751,20524
20.7814,19937
20.7878,20409
20.7941,21846
20.8004,20565
20.8067,22760
20.813,27954
20.8193,32848
20.8256,40958
20.8319,58410
20.8382,79945
20.8445,118617
20.8508,160744
20.8571,210020
20.8635,268200
20.8698,326370
20.8761,391406
20.8824,445677
20.8887,512031
20.895,584328
20.9013,652198
20.9076,738291
20.9139,830121
20.9202,936272
20.9265,1053590
20.9328,1195088
20.9392,1329597
20.9455,1485450
20.9518,1617769
20.9581,1622294
20.9644,1566973
20.9707,1410245
20.977,1175491
20.9833,895619
20.9896,602104
20.9959,371279
21.0022,226445
21.0086,130876
21.0149,82191
21.0212,59532
21.0275,47747
21.0338,40076
21.0401,40077
21.0464,43225
21.0527,46408
21.059,61458
21.0653,84493
21.0716,112033
21.0779,154665
21.0843,220243
21.0906,288469
21.0969,363969
21.1032,443112
21.1095,525163
21.1158,597283
21.1221,665973
21.1284,745514
21.1347,836714
21.141,970571
21.1473,1091710
21.1537,1215993
21.16,1361785
21.1663,1505634
21.1726,1655684
21.1789,1794148
21.1852,1905174
21.1915,1903790
21.1978,1765103
21.2041,1533189
21.2104,1220384
21.2167,890559
21.223,590320
21.2294,355729
21.2357,205437
21.242,119145
21.2483,77414
21.2546,56503
21.2609,49774
21.2672,46532
21.2735,43949
21.2798,45293
21.2861,45540
21.2924,49185
21.2988,47917
21.3051,50067
21.3114,55039
21.3177,57289
21.324,60445
21.3303,61904
21.3366,67523
21.3429,71644
21.3492,71802
21.3555,72709
21.3618,75077
21.3681,72775
21.3745,66970
21.3808,61348
21.3871,55584
21.3934,55440
21.3997,52056
21.406,48691
21.4123,49815
21.4186,57222
21.4249,58401
21.4312,63365
21.4375,71029
21.4438,71516
21.4502,75021
21.4565,67669
21.4628,62198
21.4691,57188
21.4754,49075
21.4817,42138
21.488,33297
21.4943,25355
21.5006,21841
21.5069,16733
21.5132,17139
21.5196,15068
21.5259,14768
21.5322,15473
21.5385,15617
21.5448,17110
21.5511,15581
21.5574,15983
21.5637,17757
21.57,16496
21.5763,18722
21.5826,19755
21.5889,21984
21.5953,21091
21.6016,22453
21.6079,24025
21.6142,24712
21.6205,26018
21.6268,27245
21.6331,25501
21.6394,25616
21.6457,26495
21.652,26498
21.6583,28534
21.6647,29657
21.671,31866
21.6773,32163
21.6836,33239
21.6899,36536
21.6962,35812
21.7025,35805
21.7088,32320
21.7151,29868
21.7214,25414
21.7277,20306
21.734,20292
21.7403,17783
21.7467,18003
21.753,15629
21.7593,17062
21.7656,16868
21.7719,17400
21.7782,20045
21.7845,17144
21.7908,19455
21.7971,19500
21.8034,19848
21.8098,21570
21.8161,21505
21.8224,26375
21.8287,26762
21.835,30618
21.8413,35448
21.8476,36883
21.8539,41371
21.8602,44873
21.8665,50640
21.8728,54168
21.8791,56874
21.8855,56267
21.8918,57696
21.8981,59391
21.9044,64685
21.9107,65104
21.917,71846
21.9233,85224
21.9296,89091
21.9359,92854
21.9422,95614
21.9485,93265
21.9548,85629
21.9612,73226
21.9674,59623
21.9738,51612
21.9801,44887
21.9864,45372
21.9927,42563
21.999,45243
22.0053,45150
22.0116,49950
22.0179,52612
22.0242,61607
22.0306,64044
22.0369,72868
22.0432,79325
22.0495,82263
22.0558,87552
22.0621,88737
22.0684,84955
22.0747,70429
22.081,56503
22.0873,42808
22.0936,37735
22.0999,28806
22.1062,24609
22.1126,20945
22.1189,16580
22.1252,16684
22.1315,14736
22.1378,12759
22.1441,11587
22.1504,12743
22.1567,12259
22.163,12454
22.1693,12380
22.1757,11274
22.182,11343
22.1883,12324
22.1946,11695
22.2009,14416
22.2072,14105
22.2135,14544
22.2198,15813
22.2261,17302
22.2324,19551
22.2387,19072
22.245,20267
22.2514,20301
22.2577,19779
22.264,20138
22.2703,24328
22.2766,24027
22.2829,25415
22.2892,27624
22.2955,30011
22.3018,32849
22.3081,37383
22.3144,38452
22.3208,43255
22.3271,45481
22.3334,46926
22.3397,50887
22.346,46130
22.3523,41188
22.3586,42326
22.3649,37119
22.3712,36418
22.3775,35434
22.3838,33191
22.3901,32326
22.3965,30229
22.4028,26969
22.4091,25993
22.4154,25691
22.4217,22527
22.428,24142
22.4343,22505
22.4406,23233
22.4469,21609
22.4532,22045
22.4595,21061
22.4658,20222
22.4722,21258
22.4785,21282
22.4848,21992
22.4911,22156
22.4974,22891
22.5037,21747
22.51,22277
22.5163,23969
22.5226,26318
22.5289,27059
22.5352,28763
22.5416,32575
22.5479,36549
22.5542,37139
22.5605,40533
22.5668,43176
22.5731,43982
22.5794,45861
22.5857,46230
22.592,45384
22.5983,42647
22.6046,39017
22.6109,33842
22.6173,29693
22.6236,29418
22.6299,25393
22.6362,21773
22.6425,20742
22.6488,21190
22.6551,21582
22.6614,21318
22.6677,19207
22.674,18465
22.6803,18132
22.6867,18047
22.693,18505
22.6993,17381
22.7056,16739
22.7119,17645
22.7182,15147
22.7245,18318
22.7308,16937
22.7371,17508
22.7434,18325
22.7497,17650
22.756,17893
22.7624,17106
22.7687,18974
22.775,16735
22.7813,16617
22.7876,17235
22.7939,17647
22.8002,15941
22.8065,17158
22.8128,16465
22.8191,16918
22.8254,17331
22.8317,17777
22.8381,18203
22.8444,21045
22.8507,22680
22.857,22597
22.8633,25500
22.8696,26849
22.8759,24409
22.8822,25859
22.8885,24020
22.8948,21752
22.9011,18997
22.9075,17414
22.9138,16369
22.9201,15416
22.9264,13020
22.9327,13248
22.939,12536
22.9453,14024
22.9516,14295
22.9579,14691
22.9642,12954
22.9705,13810
22.9768,14810
22.9832,15654
22.9895,11729
22.9958,13088
23.0021,11797
23.0084,12289
23.0147,11058
23.021,13038
23.0273,10459
23.0336,12229
23.0399,11737
23.0462,11665
23.0526,12422
23.0589,11655
23.0652,11196
23.0715,13480
23.0778,12232
23.0841,10337
23.0904,11985
23.0967,13212
23.103,13997
23.1093,12755
23.1156,15270
23.1219,15307
23.1283,17285
23.1346,17949
23.1409,16657
23.1472,16088
23.1535,15312
23.1598,15818
23.1661,16294
23.1724,16836
23.1787,15990
23.185,15446
23.1913,15233
23.1976,15471
23.204,14694
23.2103,14423
23.2166,14193
23.2229,13365
23.2292,12364
23.2355,12473
23.2418,13305
23.2481,12974
23.2544,14574
23.2607,13338
23.267,14367
23.2734,12729
23.2797,15204
23.286,14293
23.2923,14763
23.2986,16657
23.3049,15292
23.3112,13672
23.3175,12296
23.3238,10310
23.3301,9944
23.3364,9299
23.3427,11298
23.3491,9649
23.3554,8319
23.3617,9493
23.368,10205
23.3743,10641
23.3806,9088
23.3869,11336
23.3932,11789
23.3995,12301
23.4058,10366
23.4121,10317
23.4185,11607
23.4248,11498
23.4311,11723
23.4374,12871
23.4437,11367
23.45,10685
23.4563,11959
23.4626,12470
23.4689,13217
23.4752,12948
23.4815,14932
23.4878,11174
23.4942,13094
23.5005,10256
23.5068,11213
23.5131,10160
23.5194,9996
23.5257,10164
23.532,10749
23.5383,10286
23.5446,10500
23.5509,10512
23.5572,10455
23.5636,10590
23.5699,10142
23.5762,12206
23.5825,12899
23.5888,12600
23.5951,12787
23.6014,15815
23.6077,16569
23.614,18112
23.6203,17044
23.6266,16641
23.6329,15082
23.6393,14269
23.6456,14548
23.6519,11456
23.6582,12815
23.6645,11895
23.6708,11023
23.6771,12059
23.6834,11545
23.6897,11488
23.696,11403
23.7023,9102
23.7087,10190
23.715,8818
23.7213,9635
23.7276,9242
23.7339,8663
23.7402,9219
23.7465,7291
23.7528,8273
23.7591,8550
23.7654,8677
23.7717,9189
23.778,8945
23.7844,9025
23.7906,9174
23.797,9264
23.8033,9445
23.8096,9069
23.8159,6696
23.8222,7950
23.8285,8899
23.8348,8281
23.8411,7058
23.8474,8473
23.8537,8296
23.8601,6813
23.8664,7767
23.8727,7554
23.879,8614
23.8853,7788
23.8916,7983
23.8979,8025
23.9042,8221
23.9105,5904
23.9168,7341
23.9231,8192
23.9295,7288
23.9358,6304
23.9421,6971
23.9484,8561
23.9547,8285
23.961,8736
23.9673,8348
23.9736,8467
23.9799,7674
23.9862,8447
23.9925,8866
23.9988,9816
24.0052,8796
24.0115,8250
24.0178,11470
24.0241,9280
24.0304,9454
24.0367,10328
24.043,10205
24.0493,12779
24.0556,10008
24.0619,10742
24.0682,13381
24.0746,10133
24.0809,12339
24.0872,12772
24.0935,10780
24.0998,9421
24.1061,9333
24.1124,10293
24.1187,8343
24.125,9202
24.1313,8642
24.1376,10350
24.1439,8268
24.1503,9496
24.1566,8750
24.1629,9895
24.1692,8204
24.1755,9443
24.1818,9916
24.1881,10391
24.1944,10787
24.2007,12492
24.207,11898
24.2133,13459
24.2197,15566
24.226,14034
24.2323,16043
24.2386,14962
24.2449,16941
24.2512,18346
24.2575,18345
24.2638,19389
24.2701,20096
24.2764,23467
24.2827,22511
24.289,27296
24.2954,28456
24.3017,32468
24.308,34733
24.3143,38766
24.3206,35408
24.3269,36302
24.3332,28741
24.3395,24466
24.3458,19603
24.3521,15220
24.3584,11616
24.3647,10617
24.3711,10661
24.3774,10246
24.3837,8525
24.39,8513
24.3963,7359
24.4026,8640
24.4089,6536
24.4152,8659
24.4215,8627
24.4278,9176
24.4341,8537
24.4405,9198
24.4468,9548
24.4531,9828
24.4594,8860
24.4657,9027
24.472,10274
24.4783,9859
24.4846,12396
24.4909,10380
24.4972,11788
24.5035,10774
24.5098,10276
24.5162,11584
24.5225,9865
24.5288,12244
24.5351,12323
24.5414,12069
24.5477,10489
24.554,13413
24.5603,12335
24.5666,14495
24.5729,13469
24.5792,14652
24.5856,15491
24.5919,14269
24.5982,12730
24.6045,13056
24.6108,12950
24.6171,12131
24.6234,10152
24.6297,10091
24.636,10782
24.6423,10023
24.6486,10091
24.6549,8121
24.6613,8906
24.6676,8484
24.6739,8982
24.6802,9913
24.6865,7659
24.6928,8425
24.6991,7252
24.7054,7814
24.7117,8402
24.718,8702
24.7243,7146
24.7306,8310
24.737,7528
24.7433,6651
24.7496,6533
24.7559,6720
24.7622,6670
24.7685,7269
24.7748,6986
24.7811,6351
24.7874,7139
24.7937,7419
24.8,8246
24.8064,8310
24.8127,8403
24.819,8362
24.8253,9153
24.8316,9037
24.8379,10697
24.8442,8053
24.8505,9701
24.8568,10876
24.8631,9284
24.8694,8394
24.8757,9257
24.8821,10300
24.8884,10624
24.8947,8784
24.901,9773
24.9073,8198
24.9136,7215
24.9199,8258
24.9262,7928
24.9325,7559
24.9388,7890
24.9451,7361
24.9515,7583
24.9578,8331
24.9641,7164
24.9704,8862
24.9767,8955
24.983,8311
24.9893,8878
24.9956,8011
25.0019,9888
25.0082,9637
25.0145,10463
25.0208,10537
25.0272,10877
25.0335,12996
25.0398,13898
25.0461,13454
25.0524,15387
25.0587,13076
25.065,17012
25.0713,15197
25.0776,17383
25.0839,19117
25.0902,20287
25.0966,23588
25.1029,23226
25.1092,25085
25.1155,27744
25.1218,28379
25.1281,32095
25.1344,30473
25.1407,30402
25.147,29488
25.1533,23225
25.1596,20963
25.1659,19410
25.1723,16037
25.1786,12803
25.1849,13270
25.1912,11852
25.1975,11768
25.2038,10286
25.2101,11385
25.2164,11124
25.2227,12261
25.229,11518
25.2353,12820
25.2416,11597
25.2479,13837
25.2543,14679
25.2606,14115
25.2669,13615
25.2732,14520
25.2795,14851
25.2858,12362
25.2921,14721
25.2984,14282
25.3047,12378
25.311,12944
25.3174,11656
25.3237,11884
25.33,10972
25.3363,9158
25.3426,9941
25.3489,9020
25.3552,9186
25.3615,9521
25.3678,8732
25.3741,9751
25.3804,8375
25.3867,9888
25.3931,8491
25.3994,8299
25.4057,8849
25.412,9599
25.4183,8426
25.4246,8851
25.4309,7896
25.4372,11055
25.4435,9345
25.4498,8514
25.4561,10926
25.4625,12547
25.4688,10464
25.4751,9968
25.4814,11461
25.4877,11838
25.494,13014
25.5003,13696
25.5066,15610
25.5129,16017
25.5192,16704
25.5255,17306
25.5318,18681
25.5382,21218
25.5445,22915
25.5508,24361
25.5571,24917
25.5634,29583
25.5697,27153
25.576,32226
25.5823,37274
25.5886,37982
25.5949,40629
25.6012,43354
25.6076,45709
25.6139,51462
25.6202,51059
25.6265,49756
25.6328,43390
25.6391,36311
25.6454,29994
25.6517,24475
25.658,19907
25.6643,18550
25.6706,17832
25.6769,14985
25.6833,12514
25.6896,12838
25.6959,13626
25.7022,12545
25.7085,14771
25.7148,15055
25.7211,17424
25.7274,16065
25.7337,15125
25.74,16846
25.7463,16470
25.7526,14745
25.759,13654
25.7653,16234
25.7716,15884
25.7779,17106
25.7842,16809
25.7905,16312
25.7968,20441
25.8031,18499
25.8094,19564
25.8157,20373
25.822,22609
25.8284,24389
25.8347,27531
25.841,28024
25.8473,27870
25.8536,27990
25.8599,30520
25.8662,31418
25.8725,32768
25.8788,37094
25.8851,37770
25.8914,39108
25.8977,36726
25.9041,35265
25.9104,30939
25.9167,30398
25.923,28918
25.9293,28399
25.9356,26134
25.9419,22728
25.9482,20792
25.9545,17930
25.9608,19031
25.9671,18694
25.9735,18011
25.9798,18987
25.9861,18052
25.9924,20622
25.9987,19973
26.005,19775
26.0113,20926
26.0176,19616
26.0239,19132
26.0302,16926
26.0365,17989
26.0428,18086
26.0492,17471
26.0555,17178
26.0618,20058
26.0681,19287
26.0744,18612
26.0807,17987
26.087,17105
26.0933,16565
26.0996,14547
26.1059,14078
26.1122,16716
26.1186,16478
26.1249,17379
26.1312,14886
26.1375,15216
26.1438,15413
26.1501,11777
26.1564,12580
26.1627,10722
26.169,12060
26.1753,10804
26.1816,13154
26.1879,12526
26.1943,10094
26.2006,13808
26.2069,14588
26.2132,12296
26.2195,13848
26.2258,16961
26.2321,17795
26.2384,16729
26.2447,18054
26.251,17748
26.2573,18158
26.2636,16886
26.27,16339
26.2763,15270
26.2826,15024
26.2889,19247
26.2952,24147
26.3015,26551
26.3078,27148
26.3141,26060
26.3204,23245
26.3267,24465
26.333,25855
26.3394,25481
26.3457,29123
26.352,30350
26.3583,30244
26.3646,36367
26.3709,40292
26.3772,48287
26.3835,59351
26.3898,72310
26.3961,79759
26.4024,82359
26.4087,63402
26.4151,44446
26.4214,33015
26.4277,22451
26.434,17396
26.4403,15299
26.4466,16064
26.4529,17919
26.4592,14177
26.4655,15994
26.4718,19847
26.4781,19419
26.4845,20566
26.4908,20296
26.4971,19835
26.5034,18842
26.5097,18095
26.516,20293
26.5223,17339
26.5286,17995
26.5349,17512
26.5412,18199
26.5475,20600
26.5538,23239
26.5602,23655
26.5665,23785
26.5728,27287
26.5791,31785
26.5854,34154
26.5917,33875
26.598,32505
26.6043,29291
26.6106,30731
26.6169,33217
26.6232,33178
26.6295,38752
26.6359,45757
26.6422,52315
26.6485,57996
26.6548,55796
26.6611,45226
26.6674,33511
26.6737,24468
26.68,24817
26.6863,25037
26.6926,22241
26.6989,23143
26.7053,23538
26.7116,20946
26.7179,22075
26.7242,20857
26.7305,22387
26.7368,23345
26.7431,21993
26.7494,20155
26.7557,19261
26.762,17251
26.7683,16202
26.7746,16784
26.781,17085
26.7873,15788
26.7936,15685
26.7999,15013
26.8062,15276
26.8125,15978
26.8188,15654
26.8251,17893
26.8314,16638
26.8377,14445
26.844,14042
26.8504,14380
26.8567,13865
26.863,17023
26.8693,15135
26.8756,15210
26.8819,17378
26.8882,18905
26.8945,19980
26.9008,24316
26.9071,25416
26.9134,28599
26.9197,26162
26.9261,21857
26.9324,16559
26.9387,13484
26.945,11459
26.9513,12026
26.9576,11351
26.9639,12331
26.9702,12062
26.9765,14079
26.9828,13669
26.9891,15465
26.9955,15721
27.0018,16702
27.0081,19565
27.0144,21458
27.0207,23372
27.027,26108
27.0333,26624
27.0396,24208
27.0459,24297
27.0522,28001
27.0585,32267
27.0648,35726
27.0712,39046
27.0775,39381
27.0838,32097
27.0901,29916
27.0964,25696
27.1027,22743
27.109,23735
27.1153,27876
27.1216,32561
27.1279,36959
27.1342,44737
27.1405,46484
27.1469,46338
27.1532,43667
27.1595,40471
27.1658,44649
27.1721,47605
27.1784,53029
27.1847,55893
27.191,57500
27.1973,67232
27.2036,81081
27.2099,97345
27.2163,90972
27.2226,69951
27.2289,48306
27.2352,33674
27.2415,23960
27.2478,22472
27.2541,23197
27.2604,22779
27.2667,18316
27.273,14403
27.2793,12760
27.2856,14439
27.292,14267
27.2983,13712
27.3046,16129
27.3109,15782
27.3172,17344
27.3235,19112
27.3298,20267
27.3361,20111
27.3424,20836
27.3487,22272
27.355,26498
27.3614,31332
27.3677,38222
27.374,42885
27.3803,42294
27.3866,35243
27.3929,28992
27.3992,25772
27.4055,22988
27.4118,22251
27.4181,25197
27.4244,22074
27.4307,21377
27.4371,22630
27.4434,25613
27.4497,28817
27.456,29512
27.4623,29154
27.4686,28754
27.4749,26887
27.4812,27867
27.4875,28444
27.4938,29841
27.5001,30797
27.5065,32219
27.5128,36308
27.5191,43082
27.5254,51020
27.5317,58725
27.538,54094
27.5443,43491
27.5506,34285
27.5569,26241
27.5632,24687
27.5695,24294
27.5758,24881
27.5822,23671
27.5885,21478
27.5948,22041
27.6011,23495
27.6074,21858
27.6137,21376
27.62,22966
27.6263,21677
27.6326,21230
27.6389,20181
27.6452,21081
27.6515,21672
27.6579,22539
27.6642,21009
27.6705,26137
27.6768,28115
27.6831,30804
27.6894,36842
27.6957,39031
27.702,39059
27.7083,35565
27.7146,35359
27.7209,31179
27.7273,27011
27.7336,22447
27.7399,19713
27.7462,19590
27.7525,21428
27.7588,22426
27.7651,21821
27.7714,25547
27.7777,23263
27.784,22987
27.7903,24457
27.7966,24571
27.803,27146
27.8093,24204
27.8156,22919
27.8219,19783
27.8282,18123
27.8345,19329
27.8408,19299
27.8471,23007
27.8534,29219
27.8597,27060
27.866,23477
27.8724,19310
27.8787,17249
27.885,11848
27.8913,12768
27.8976,12247
27.9039,12467
27.9102,12327
27.9165,13618
27.9228,13088
27.9291,13712
27.9354,11902
27.9417,10993
27.9481,12638
27.9544,14808
27.9607,16155
27.967,14584
27.9733,13748
27.9796,12713
27.9859,11315
27.9922,11077
27.9985,12076
28.0048,11381
28.0111,11942
28.0174,12351
28.0238,12173
28.0301,14478
28.0364,13392
28.0427,14686
28.049,15898
28.0553,17003
28.0616,18224
28.0679,17279
28.0742,15721
28.0805,13741
28.0868,13435
28.0932,11480
28.0995,11141
28.1058,11499
28.1121,11138
28.1184,12143
28.1247,12094
28.131,11884
28.1373,14168
28.1436,14864
28.1499,16835
28.1562,18399
28.1625,19047
28.1689,19058
28.1752,19603
28.1815,22777
28.1878,23123
28.1941,24837
28.2004,28617
28.2067,34980
28.213,47796
28.2193,58861
28.2256,56555
28.2319,42145
28.2383,29206
28.2446,20850
28.2509,17906
28.2572,18138
28.2635,15695
28.2698,14970
28.2761,14646
28.2824,14463
28.2887,14692
28.295,16412
28.3013,15776
28.3076,16597
28.314,15309
28.3203,13355
28.3266,14185
28.3329,14518
28.3392,12212
28.3455,12495
28.3518,12658
28.3581,13781
28.3644,14901
28.3707,12657
28.377,13245
28.3834,12790
28.3897,12972
28.396,12794
28.4023,13722
28.4086,12777
28.4149,13272
28.4212,11762
28.4275,10814
28.4338,10227
28.4401,10271
28.4464,10400
28.4527,10452
28.4591,8940
28.4654,10361
28.4717,11365
28.478,10761
28.4843,11035
28.4906,10376
28.4969,12002
28.5032,12383
28.5095,11057
28.5158,12038
28.5221,11768
28.5284,14186
28.5348,12740
28.5411,12168
28.5474,11488
28.5537,9472
28.56,10982
28.5663,10031
28.5726,10895
28.5789,11353
28.5852,11091
28.5915,10311
28.5978,11229
28.6042,9744
28.6105,10881
28.6168,11071
28.6231,11220
28.6294,12707
28.6357,11617
28.642,12760
28.6483,11492
28.6546,14259
28.6609,11549
28.6672,13348
28.6735,13035
28.6799,13195
28.6862,13624
28.6925,12729
28.6988,13367
28.7051,11348
28.7114,11219
28.7177,10574
28.724,9924
28.7303,9561
28.7366,11473
28.7429,10622
28.7493,12978
28.7556,13391
28.7619,13979
28.7682,14291
28.7745,15277
28.7808,17948
28.7871,18152
28.7934,19337
28.7997,18308
28.806,20406
28.8123,21732
28.8186,21652
28.825,21378
28.8313,18583
28.8376,16171
28.8439,12308
28.8502,11838
28.8565,13048
28.8628,11286
28.8691,12915
28.8754,14438
28.8817,13700
28.888,13177
28.8944,13256
28.9007,12468
28.907,13352
28.9133,13835
28.9196,12629
28.9259,12870
28.9322,14667
28.9385,15804
28.9448,15622
28.9511,17253
28.9574,17985
28.9637,17067
28.9701,15772
28.9764,12951
28.9827,13507
28.989,14948
28.9953,13606
29.0016,14958
29.0079,17253
29.0142,16376
29.0205,20118
29.0268,18810
29.0331,17150
29.0394,16161
29.0458,14368
29.0521,15072
29.0584,12747
29.0647,11934
29.071,11815
29.0773,14183
29.0836,12399
29.0899,12557
29.0962,12922
29.1025,13941
29.1088,16885
29.1152,17599
29.1215,14817
29.1278,15511
29.1341,14666
29.1404,14342
29.1467,14576
29.153,13917
29.1593,15288
29.1656,13923
29.1719,14624
29.1782,13993
29.1845,15250
29.1909,14016
29.1972,15003
29.2035,16096
29.2098,18098
29.2161,16452
29.2224,19124
29.2287,17996
29.235,19278
29.2413,15344
29.2476,13682
29.2539,13644
29.2603,14001
29.2666,13728
29.2729,14274
29.2792,15119
29.2855,14033
29.2918,12447
29.2981,12274
29.3044,13526
29.3107,15001
29.317,13405
29.3233,15287
29.3296,13658
29.336,15467
29.3423,16705
29.3486,19230
29.3549,24572
29.3612,27296
29.3675,28855
29.3738,29167
29.3801,27171
29.3864,30824
29.3927,37984
29.399,40880
29.4054,44687
29.4117,50934
29.418,58732
29.4243,81386
29.4306,112327
29.4369,122291
29.4432,110015
29.4495,78756
29.4558,57623
29.4621,45068
29.4684,42156
29.4747,40977
29.4811,35867
29.4874,37112
29.4937,28586
29.5,26399
29.5063,24951
29.5126,27259
29.5189,28770
29.5252,31440
29.5315,35976
29.5378,31767
29.5441,27712
29.5504,27063
29.5568,23184
29.5631,23919
29.5694,24769
29.5757,26246
29.582,27447
29.5883,25421
29.5946,21562
29.6009,19991
29.6072,19151
29.6135,19642
29.6198,21665
29.6262,22294
29.6325,19559
29.6388,17909
29.6451,18342
29.6514,17636
29.6577,19392
29.664,17693
29.6703,19358
29.6766,21068
29.6829,20828
29.6892,19802
29.6955,20691
29.7019,19913
29.7082,20942
29.7145,21596
29.7208,22375
29.7271,24491
29.7334,29967
29.7397,35638
29.746,37135
29.7523,35087
29.7586,28085
29.7649,22199
29.7713,18376
29.7776,20121
29.7839,23466
29.7902,22423
29.7965,25765
29.8028,25931
29.8091,25303
29.8154,25761
29.8217,28398
29.828,29582
29.8343,37353
29.8406,40243
29.847,42776
29.8533,40845
29.8596,43401
29.8659,48014
29.8722,55786
29.8785,69439
29.8848,84966
29.8911,116367
29.8974,126277
29.9037,118500
29.91,85907
29.9163,57697
29.9227,48534
29.929,43340
29.9353,42779
29.9416,41621
29.9479,40574
29.9542,35800
29.9605,32887
29.9668,34628
29.9731,32401
29.9794,35247
29.9857,40592
29.9921,46454
29.9984,50747
30.0047,43462
30.011,43209
30.0173,41940
30.0236,43778
30.0299,45975
30.0362,41749
30.0425,42206
30.0488,40540
30.0551,37039
30.0614,35430
30.0678,38501
30.0741,44509
30.0804,55269
30.0867,61087
30.093,70106
30.0993,75608
30.1056,67667
30.1119,62595
30.1182,61534
30.1245,59161
30.1308,48657
30.1372,46883
30.1435,45531
30.1498,42168
30.1561,41047
30.1624,38351
30.1687,41050
30.175,46878
30.1813,52139
30.1876,55538
30.1939,50790
30.2002,43399
30.2065,40068
30.2129,34070
30.2192,33780
30.2255,37952
30.2318,38623
30.2381,43281
30.2444,40353
30.2507,38238
30.257,37731
30.2633,39210
30.2696,34956
30.2759,32115
30.2823,34059
30.2886,35337
30.2949,35570
30.3012,35513
30.3075,36296
30.3138,37232
30.3201,35097
30.3264,32004
30.3327,29863
30.339,27311
30.3453,31962
30.3516,31503
30.358,30985
30.3643,29456
30.3706,28735
30.3769,27735
30.3832,24948
30.3895,28643
30.3958,30627
30.4021,32765
30.4084,32676
30.4147,35564
30.421,34366
30.4273,32348
30.4337,34378
30.44,38985
30.4463,50464
30.4526,61973
30.4589,69217
30.4652,62449
30.4715,52862
30.4778,42599
30.4841,39441
30.4904,38311
30.4967,41356
30.5031,48798
30.5094,52351
30.5157,53177
30.522,52322
30.5283,49255
30.5346,47493
30.5409,44125
30.5472,39872
30.5535,36514
30.5598,34162
30.5661,31620
30.5724,32155
30.5788,31225
30.5851,31817
30.5914,31679
30.5977,32642
30.604,34124
30.6103,32394
30.6166,33552
30.6229,28413
30.6292,28640
30.6355,27048
30.6418,26860
30.6482,30203
30.6545,27505
30.6608,28316
30.6671,27721
30.6734,26501
30.6797,26123
30.686,26168
30.6923,26231
30.6986,28763
30.7049,29966
30.7112,25804
30.7175,24648
30.7239,26646
30.7302,25647
30.7365,26520
30.7428,27846
30.7491,28430
30.7554,27408
30.7617,28414
30.768,29327
30.7743,27584
30.7806,29350
30.7869,29021
30.7933,27739
30.7996,26434
30.8059,28261
30.8122,26859
30.8185,26501
30.8248,30159
30.8311,31842
30.8374,32380
30.8437,30532
30.85,33164
30.8563,30083
30.8626,26939
30.869,30369
30.8753,27158
30.8816,26359
30.8879,23447
30.8942,25330
30.9005,25774
30.9068,25276
30.9131,23793
30.9194,27851
30.9257,25129
30.932,25478
30.9383,27423
30.9447,25625
30.951,28420
30.9573,26104
30.9636,26973
30.9699,27231
30.9762,28560
30.9825,26896
30.9888,25443
30.9951,27603
31.0014,27759
31.0077,28305
31.0141,29456
31.0204,30512
31.0267,30212
31.033,30822
31.0393,32415
31.0456,30244
31.0519,31164
31.0582,33278
31.0645,33267
31.0708,31459
31.0771,30573
31.0834,30671
31.0898,29920
31.0961,29403
31.1024,32604
31.1087,32290
31.115,29784
31.1213,32032
31.1276,32154
31.1339,33237
31.1402,31279
31.1465,33103
31.1528,31746
31.1592,32810
31.1655,34970
31.1718,33108
31.1781,32123
31.1844,31768
31.1907,33273
31.197,33869
31.2033,33749
31.2096,35755
31.2159,33723
31.2222,35058
31.2285,34730
31.2349,33348
31.2412,32824
31.2475,34699
31.2538,32254
31.2601,35445
31.2664,35081
31.2727,37334
31.279,38474
31.2853,38085
31.2916,36950
31.2979,39128
31.3043,35132
31.3106,36523
31.3169,35768
31.3232,38364
31.3295,42791
31.3358,52530
31.3421,61710
31.3484,59283
31.3547,55428
31.361,46346
31.3673,43932
31.3736,42236
31.38,44165
31.3863,44148
31.3926,44037
31.3989,43785
31.4052,43540
31.4115,45481
31.4178,50464
31.4241,59419
31.4304,78410
31.4367,96316
31.443,104509
31.4493,92941
31.4557,77299
31.462,62719
31.4683,56032
31.4746,48485
31.4809,48926
31.4872,47796
31.4935,46264
31.4998,49089
31.5061,49155
31.5124,46602
31.5187,46222
31.5251,44123
31.5314,46673
31.5377,46148
31.544,47016
31.5503,45732
31.5566,46644
31.5629,42604
31.5692,41718
31.5755,41148
31.5818,39582
31.5881,40353
31.5944,40376
31.6008,39906
31.6071,41427
31.6134,43220
31.6197,44012
31.626,43191
31.6323,46804
31.6386,44953
31.6449,43745
31.6512,45044
31.6575,43847
31.6638,46379
31.6702,47719
31.6765,53452
31.6828,61878
31.6891,58572
31.6954,52185
31.7017,49304
31.708,52042
31.7143,49792
31.7206,48493
31.7269,52996
31.7332,53031
31.7395,52840
31.7459,56055
31.7522,56153
31.7585,55940
31.7648,65850
31.7711,78390
31.7774,105323
31.7837,122852
31.79,111596
31.7963,94486
31.8026,76245
31.8089,65218
31.8152,64783
31.8216,65869
31.8279,66244
31.8342,60417
31.8405,65612
31.8468,65484
31.8531,68331
31.8594,63936
31.8657,58822
31.872,59929
31.8783,54730
31.8846,51927
31.891,56402
31.8973,52077
31.9036,56090
31.9099,57957
31.9162,70365
31.9225,82152
31.9288,83081
31.9351,80121
31.9414,69066
31.9477,65187
31.954,57599
31.9603,57043
31.9667,58501
31.973,59041
31.9793,59296
31.9856,63965
31.9919,67939
31.9982,68065
32.0045,65832
32.0108,58116
32.0171,60179
32.0234,54337
32.0297,55502
32.0361,59521
32.0423,55890
32.0487,53978
32.055,53593
32.0613,52550
32.0676,53975
32.0739,53300
32.0802,56328
32.0865,58010
32.0928,57334
32.0991,63990
32.1054,57837
32.1118,60693
32.118,60198
32.1244,55803
32.1307,50562
32.137,51810
32.1433,57592
32.1496,68328
32.1559,68298
32.1622,72031
32.1685,74688
32.1748,68349
32.1812,63292
32.1874,56260
32.1938,59624
32.2001,55546
32.2064,52763
32.2127,52517
32.219,51985
32.2253,49697
32.2316,51619
32.2379,50006
32.2442,48513
32.2505,50313
32.2569,52728
32.2632,54910
32.2695,52455
32.2758,55521
32.2821,55191
32.2884,50545
32.2947,51944
32.301,52684
32.3073,49676
32.3136,49469
32.3199,49266
32.3262,48315
32.3325,47780
32.3389,45781
32.3452,50032
32.3515,47595
32.3578,51718
32.3641,50085
32.3704,47736
32.3767,48150
32.383,48602
32.3893,47231
32.3956,49891
32.4019,48160
32.4083,47456
32.4146,45930
32.4209,45601
32.4272,46826
32.4335,48108
32.4398,49568
32.4461,46500
32.4524,46983
32.4587,47902
32.465,45114
32.4713,47308
32.4776,49150
32.484,47590
32.4903,46295
32.4966,49059
32.5029,48815
32.5092,47687
32.5155,50037
32.5218,52908
32.5281,48415
32.5344,45652
32.5407,46132
32.547,46010
32.5534,46270
32.5597,47636
32.566,45183
32.5723,47052
32.5786,47628
32.5849,47650
32.5912,43692
32.5975,45141
32.6038,45095
32.6101,46613
32.6164,46146
32.6228,45147
32.629,49957
32.6354,46223
32.6417,41165
32.648,45206
32.6543,43902
32.6606,42417
32.6669,44446
32.6732,39483
32.6795,41974
32.6858,40659
32.6921,41313
32.6985,40102
32.7048,40553
32.7111,39652
32.7174,41957
32.7237,40370
32.73,43099
32.7363,40628
32.7426,39672
32.7489,39682
32.7552,42636
32.7615,42053
32.7679,39851
32.7741,44170
32.7805,43105
32.7868,40197
32.7931,41157
32.7994,40216
32.8057,41305
32.812,43237
32.8183,40773
32.8246,39834
32.8309,43018
32.8372,39826
32.8436,37618
32.8499,41558
32.8562,40256
32.8625,40585
32.8688,42806
32.8751,42240
32.8814,38697
32.8877,39453
32.894,40405
32.9003,45447
32.9066,39882
32.913,40828
32.9192,40734
32.9256,39091
32.9319,38478
32.9382,40094
32.9445,39388
32.9508,38216
32.9571,39609
32.9634,40521
32.9697,41913
32.976,42752
32.9823,38990
32.9887,39308
32.995,40239
33.0013,43438
33.0076,42299
33.0139,42393
33.0202,46549
33.0265,44718
33.0328,50909
33.0391,46302
33.0454,42982
33.0517,42907
33.0581,43704
33.0643,42017
33.0707,42232
33.077,40265
33.0833,39295
33.0896,41643
33.0959,40461
33.1022,39549
33.1085,41438
33.1148,42861
33.1211,41712
33.1274,41356
33.1337,41323
33.1401,39291
33.1464,42459
33.1527,40372
33.159,39171
33.1653,38669
33.1716,37695
33.1779,41046
33.1842,41362
33.1905,38389
33.1968,38857
33.2031,37640
33.2094,41552
33.2158,41917
33.2221,39552
33.2284,45250
33.2347,44445
33.241,43827
33.2473,47467
33.2536,43723
33.2599,43045
33.2662,45184
33.2725,42505
33.2788,39052
33.2852,39876
33.2915,44470
33.2978,44465
33.3041,42528
33.3104,42430
33.3167,41448
33.323,43394
33.3293,40595
33.3356,43233
33.3419,39910
33.3482,41142
33.3546,40018
33.3608,42817
33.3672,41179
33.3735,39138
33.3798,39409
33.3861,39531
33.3924,37964
33.3987,39329
33.405,40490
33.4113,39241
33.4176,40232
33.4239,38633
33.4303,39489
33.4366,37189
33.4429,41220
33.4492,38681
33.4555,39110
33.4618,39596
33.4681,39609
33.4744,41274
33.4807,40546
33.487,38924
33.4933,38174
33.4997,38719
33.5059,40354
33.5123,37779
33.5186,38067
33.5249,40824
33.5312,40190
33.5375,40902
33.5438,40204
33.5501,41162
33.5564,42956
33.5627,40265
33.569,42704
33.5754,41936
33.5817,40605
33.588,40311
33.5943,40857
33.6006,42914
33.6069,40074
33.6132,40016
33.6195,43960
33.6258,43707
33.6321,50462
33.6384,51215
33.6448,54340
33.651,55201
33.6574,54150
33.6637,54016
33.67,51616
33.6763,47654
33.6826,46703
33.6889,44008
33.6952,45851
33.7015,46281
33.7078,45573
33.7141,49427
33.7205,49530
33.7268,47676
33.7331,49136
33.7394,47305
33.7457,45803
33.752,42832
33.7583,41746
33.7646,42664
33.7709,41705
33.7772,43914
33.7835,44954
33.7899,43013
33.7961,47987
33.8025,47746
33.8088,48276
33.8151,51706
33.8214,51566
33.8277,47256
33.834,47640
33.8403,47438
33.8466,45319
33.8529,43973
33.8592,41408
33.8655,46043
33.8719,47286
33.8782,44914
33.8845,48671
33.8908,49936
33.8971,49412
33.9034,45711
33.9097,44156
33.916,44241
33.9223,44600
33.9286,41376
33.935,45922
33.9412,42228
33.9476,43611
33.9539,42251
33.9602,41765
33.9665,39883
33.9728,38724
33.9791,42175
33.9854,46005
33.9917,46154
33.998,49578
34.0043,49123
34.0106,51054
34.017,47468
34.0233,47598
34.0296,46268
34.0359,45147
34.0422,46048
34.0485,43469
34.0548,41147
34.0611,41315
34.0674,42581
34.0737,41132
34.0801,42913
34.0864,41439
34.0927,42407
34.099,40843
34.1053,41441
34.1116,43750
34.1179,42194
34.1242,42645
34.1305,40276
34.1368,41562
34.1431,40571
34.1494,41267
34.1557,38465
34.1621,38900
34.1684,39963
34.1747,39887
34.181,38870
34.1873,40775
34.1936,38390
34.1999,35346
34.2062,36540
34.2125,41040
34.2188,40379
34.2251,40135
34.2315,40901
34.2377,42663
34.2441,39001
34.2504,40824
34.2567,40365
34.263,40188
34.2693,39970
34.2756,37077
34.2819,40183
34.2882,41757
34.2945,39392
34.3008,39257
34.3072,38454
34.3135,38946
34.3198,37824
34.3261,38623
34.3324,37496
34.3387,39916
34.345,36717
34.3513,37276
34.3576,39706
34.3639,38984
34.3702,40476
34.3766,42598
34.3828,39672
34.3892,37482
34.3955,39951
34.4018,39374
34.4081,36359
34.4144,38784
34.4207,37307
34.427,38327
34.4333,36040
34.4396,36646
34.446,37541
34.4522,36122
34.4586,36506
34.4649,37171
34.4712,36801
34.4775,34398
34.4838,36215
34.4901,34125
34.4964,34210
34.5027,35326
34.509,35139
34.5153,34657
34.5217,33888
34.5279,36509
34.5343,35315
34.5406,36023
34.5469,36577
34.5532,37050
34.5595,33986
34.5658,35886
34.5721,34554
34.5784,34576
34.5847,35728
34.5911,34225
34.5973,35377
34.6037,34776
34.61,34489
34.6163,34758
34.6226,33634
34.6289,34390
34.6352,35430
34.6415,35059
34.6478,33242
34.6541,36163
34.6604,35220
34.6668,32159
34.6731,34757
34.6794,35145
34.6857,35720
34.692,33413
34.6983,37187
34.7046,33391
34.7109,34690
34.7172,30863
34.7235,35820
34.7298,34883
34.7361,34958
34.7424,34781
34.7488,32660
34.7551,31776
34.7614,33374
34.7677,32144
34.774,35328
34.7803,31827
34.7866,31716
34.7929,32900
34.7992,33110
34.8055,34117
34.8119,34652
34.8182,33602
34.8245,33516
34.8308,35691
34.8371,36924
34.8434,34809
34.8497,34102
34.856,35739
34.8623,34406
34.8686,35694
34.8749,35552
34.8812,34196
34.8875,33928
34.8939,34502
34.9002,33231
34.9065,31914
34.9128,31977
34.9191,31532
34.9254,31227
34.9317,29808
34.938,33591
34.9443,32209
34.9506,32011
34.9569,33869
34.9633,33010
34.9696,33938
34.9759,31509
34.9822,33133
34.9885,30473
34.9948,31795
35.0011,33400
35.0074,31275
35.0137,32511
35.02,31546
35.0263,31746
35.0327,31230
35.039,34924
35.0453,31821
35.0516,31802
35.0579,28828
35.0642,32074
35.0705,32034
35.0768,32428
35.0831,32481
35.0894,33786
35.0957,30203
35.102,31801
35.1084,30308
35.1147,31354
35.121,32452
35.1273,30941
35.1336,31560
35.1399,32149
35.1462,32851
35.1525,33491
35.1588,33542
35.1651,33131
35.1714,31606
35.1778,32969
35.184,34929
35.1904,32149
35.1967,35237
35.203,30473
35.2093,32470
35.2156,31878
35.2219,31769
35.2282,30963
35.2345,31273
35.2408,32772
35.2471,28949
35.2535,31512
35.2598,29167
35.2661,30542
35.2724,30505
35.2787,31577
35.285,30123
35.2913,31489
35.2976,30792
35.3039,31462
35.3102,31721
35.3165,29807
35.3229,32028
35.3291,33615
35.3355,30607
35.3418,30105
35.3481,27917
35.3544,31555
35.3607,30936
35.367,29116
35.3733,29838
35.3796,31309
35.3859,32822
35.3922,29607
35.3986,28477
35.4049,30441
35.4112,32277
35.4175,31586
35.4238,31783
35.4301,31782
35.4364,31134
35.4427,30795
35.449,31447
35.4553,29747
35.4616,30696
35.468,31022
35.4743,29784
35.4806,33509
35.4869,32819
35.4932,31167
35.4995,29733
35.5058,29722
35.5121,31541
35.5184,30007
35.5247,31934
35.531,30998
35.5373,31707
35.5437,28380
35.55,32084
35.5563,30528
35.5626,29477
35.5689,31200
35.5752,30673
35.5815,28093
35.5878,30515
35.5941,29605
35.6004,32533
35.6067,30634
35.613,31408
35.6194,29145
35.6257,29786
35.632,33642
35.6383,29329
35.6446,29104
35.6509,29581
35.6572,31069
35.6635,32346
35.6698,32521
35.6761,28579
35.6824,32569
35.6887,32635
35.6951,32290
35.7014,32670
35.7077,29997
35.714,29470
35.7203,29233
35.7266,30646
35.7329,29828
35.7392,30935
35.7455,29860
35.7518,30028
35.7581,29078
35.7645,30012
35.7708,31011
35.7771,32045
35.7834,29203
35.7897,31797
35.796,30654
35.8023,31963
35.8086,30297
35.8149,30049
35.8212,29723
35.8275,29055
35.8338,30146
35.8402,31006
35.8465,28587
35.8528,32552
35.8591,29390
35.8654,28513
35.8717,28114
35.878,29161
35.8843,28984
35.8906,30578
35.8969,30553
35.9032,29079
35.9096,29072
35.9158,29286
35.9222,32013
35.9285,32055
35.9348,31134
35.9411,28737
35.9474,30895
35.9537,31018
35.96,31618
35.9663,30835
35.9726,31060
35.979,27524
35.9853,30054
35.9916,28829
35.9979,29618
36.0042,30910
36.0105,29845
36.0168,29212
36.0231,28564
36.0294,29388
36.0357,29757
36.042,30970
36.0483,29380
36.0547,30513
36.0609,29462
36.0673,29173
36.0736,32726
36.0799,29686
36.0862,30517
36.0925,30431
36.0988,30564
36.1051,31081
36.1114,27720
36.1177,28363
36.124,28317
36.1304,29756
36.1367,31976
36.143,29602
36.1493,30293
36.1556,31211
36.1619,29274
36.1682,32965
36.1745,30257
36.1808,30932
36.1871,32082
36.1934,31530
36.1998,32616
36.2061,33334
36.2124,29925
36.2187,28658
36.225,31280
36.2313,31877
36.2376,30391
36.2439,33640
36.2502,30363
36.2565,29485
36.2628,30501
36.2691,31572
36.2754,31961
36.2818,31941
36.2881,30915
36.2944,31142
36.3007,30926
36.307,33956
36.3133,30932
36.3196,32712
36.3259,32875
36.3322,31168
36.3385,28726
36.3449,31964
36.3512,31110
36.3575,31795
36.3638,32744
36.3701,32664
36.3764,31065
36.3827,31188
36.389,31659
36.3953,33051
36.4016,32157
36.4079,32584
36.4142,31533
36.4205,33363
36.4269,35182
36.4332,34952
36.4395,34664
36.4458,32942
36.4521,31089
36.4584,34652
36.4647,31896
36.471,32240
36.4773,31917
36.4836,32711
36.49,32126
36.4963,30868
36.5026,32057
36.5089,32753
36.5152,32488
36.5215,31497
36.5278,32112
36.5341,32869
36.5404,33045
36.5467,33433
36.553,34548
36.5593,35236
36.5657,31795
36.572,33517
36.5783,32062
36.5846,32898
36.5909,31871
36.5972,29976
36.6035,31345
36.6098,31498
36.6161,31472
36.6224,33177
36.6287,31635
36.635,31967
36.6414,29324
36.6476,32999
36.654,32098
36.6603,30225
36.6666,29094
36.6729,30341
36.6792,32029
36.6855,30764
36.6918,32064
36.6981,32099
36.7044,32261
36.7108,30158
36.7171,32908
36.7234,34019
36.7297,30628
36.736,32958
36.7423,29541
36.7486,30388
36.7549,31488
36.7612,34117
36.7675,29082
36.7738,31055
36.7801,30701
36.7865,30368
36.7928,30660
36.7991,30253
36.8054,33761
36.8117,29542
36.818,31588
36.8243,31714
36.8306,30951
36.8369,31311
36.8432,31356
36.8495,31776
36.8559,33058
36.8622,33496
36.8685,31290
36.8748,31130
36.8811,30102
36.8874,30235
36.8937,31574
36.9,31596
36.9063,30668
36.9126,31016
36.9189,29908
36.9252,30569
36.9316,32192
36.9379,30309
36.9442,31224
36.9505,30289
36.9568,29581
36.9631,29818
36.9694,30594
36.9757,30493
36.982,32464
36.9883,30758
36.9946,29964
37.0009,29274
37.0072,30597
37.0136,29315
37.0199,31530
37.0262,29869
37.0325,29784
37.0388,30952
37.0451,31299
37.0514,31880
37.0577,30205
37.064,33102
37.0703,29650
37.0767,30849
37.083,29935
37.0893,28484
37.0956,32135
37.1019,27516
37.1082,29418
37.1145,28792
37.1208,31568
37.1271,29998
37.1334,32468
37.1397,30653
37.146,30959
37.1523,31507
37.1587,32313
37.165,31475
37.1713,29182
37.1776,32805
37.1839,29408
37.1902,31812
37.1965,29217
37.2028,29769
37.2091,29861
37.2154,29528
37.2218,32147
37.2281,31131
37.2344,30673
37.2407,30379
37.247,30528
37.2533,29550
37.2596,28163
37.2659,32134
37.2722,30173
37.2785,30063
37.2848,28799
37.2911,29009
37.2975,28738
37.3038,30673
37.3101,30759
37.3164,30476
37.3227,28576
37.329,29475
37.3353,30303
37.3416,31654
37.3479,29872
37.3542,31422
37.3605,28641
37.3668,29770
37.3732,30275
37.3795,28116
37.3858,26720
37.3921,30045
37.3984,29883
37.4047,31452
37.411,29373
37.4173,29062
37.4236,27799
37.4299,28658
37.4362,29330
37.4426,29082
37.4489,29810
37.4552,28068
37.4615,28150
37.4678,28880
37.4741,29201
37.4804,28085
37.4867,28549
37.493,31327
37.4993,30321
37.5056,29558
37.5119,28775
37.5183,29516
37.5246,28251
37.5309,30979
37.5372,27944
37.5435,29303
37.5498,29772
37.5561,29362
37.5624,30510
37.5687,29158
37.575,30756
37.5813,28843
37.5877,29585
37.594,27966
37.6003,28917
37.6066,28063
37.6129,28572
37.6192,28814
37.6255,29778
37.6318,28394
37.6381,27752
37.6444,27667
37.6507,28543
37.657,28162
37.6634,29175
37.6697,28351
37.676,27114
37.6823,26622
37.6886,27461
37.6949,29222
37.7012,28630
37.7075,31072
37.7138,30574
37.7201,29001
37.7264,30324
37.7328,28566
37.739,27361
37.7454,28562
37.7517,28369
37.758,28851
37.7643,28201
37.7706,28512
37.7769,28300
37.7832,30161
37.7895,30452
37.7958,28154
37.8021,27421
37.8085,28228
37.8148,29791
37.8211,29405
37.8274,28156
37.8337,28940
37.84,27788
37.8463,27719
37.8526,28872
37.8589,27971
37.8652,29204
37.8715,29807
37.8779,29264
37.8842,28284
37.8905,28159
37.8968,29106
37.9031,28818
37.9094,28729
37.9157,29778
37.922,28201
37.9283,27722
37.9346,27831
37.9409,27466
37.9472,27107
37.9536,28451
37.9599,27120
37.9662,28922
37.9725,29880
37.9788,28391
37.9851,27724
37.9914,27635
37.9977,29243
38.004,28226
38.0103,29028
38.0166,29099
38.0229,28795
38.0293,28058
38.0356,29361
38.0419,28683
38.0482,29035
38.0545,28408
38.0608,28538
38.0671,27479
38.0734,27315
38.0797,28645
38.086,27721
38.0923,28965
38.0986,28870
38.105,28480
38.1113,26420
38.1176,29573
38.1239,28137
38.1302,27438
38.1365,28093
38.1428,25669
38.1491,27866
38.1554,27827
38.1617,27078
38.168,27736
38.1744,28496
38.1807,28171
38.187,25860
38.1933,27721
38.1996,27363
38.2059,26098
38.2122,27648
38.2185,27748
38.2248,29593
38.2311,27687
38.2374,27976
38.2437,28166
38.2501,28116
38.2564,27836
38.2627,27458
38.269,28282
38.2753,30081
38.2816,27248
38.2879,25735
38.2942,25996
38.3005,28545
38.3068,29281
38.3131,27965
38.3195,28731
38.3257,29258
38.3321,27772
38.3384,27817
38.3447,28839
38.351,30030
38.3573,28332
38.3636,26225
38.3699,29155
38.3762,30308
38.3825,27400
38.3888,28098
38.3952,27260
38.4015,28572
38.4078,30110
38.4141,27225
38.4204,26832
38.4267,29066
38.433,28734
38.4393,28054
38.4456,29729
38.4519,29154
38.4582,29348
38.4646,28223
38.4708,27841
38.4772,27156
38.4835,27991
38.4898,29020
38.4961,26284
38.5024,26785
38.5087,27873
38.515,26595
38.5213,29473
38.5276,26080
38.5339,28492
38.5403,29884
38.5466,27110
38.5529,28432
38.5592,28587
38.5655,26103
38.5718,28265
38.5781,28935
38.5844,25906
38.5907,29079
38.597,27348
38.6033,27335
38.6097,27915
38.616,27368
38.6223,30282
38.6286,28169
38.6349,28287
38.6412,28242
38.6475,28840
38.6538,28592
38.6601,31608
38.6664,28518
38.6727,27984
38.679,27681
38.6854,28206
38.6917,29904
38.698,28067
38.7043,28379
38.7106,27195
38.7169,29386
38.7232,29479
38.7295,27895
38.7358,25653
38.7421,29087
38.7484,26205
38.7548,28360
38.7611,26187
38.7674,26282
38.7737,28509
38.78,26705
38.7863,26066
38.7926,27071
38.7989,28014
38.8052,27264
38.8115,27593
38.8178,28129
38.8241,28035
38.8304,26814
38.8368,27256
38.8431,27963
38.8494,28648
38.8557,27432
38.862,28488
38.8683,25968
38.8746,25361
38.8809,25953
38.8872,26115
38.8935,25464
38.8998,27878
38.9062,27168
38.9125,27950
38.9188,25779
38.9251,26095
38.9314,27139
38.9377,29335
38.944,26461
38.9503,28255
38.9566,28002
38.9629,26639
38.9692,25305
38.9755,25044
38.9819,27432
38.9882,26744
38.9945,25766
39.0008,27028
39.0071,27216
39.0134,29144
39.0197,27694
39.026,27348
39.0323,29739
39.0386,28871
39.0449,29805
39.0513,36687
39.0575,38831
39.0639,49051
39.0702,56124
39.0765,71512
39.0828,82982
39.0891,104686
39.0954,122024
39.1017,138650
39.108,154405
39.1143,157034
39.1207,160123
39.127,160727
39.1333,151582
39.1396,139328
39.1459,124735
39.1522,111586
39.1585,93291
39.1648,81468
39.1711,74485
39.1774,67792
39.1837,63243
39.19,57894
39.1964,53988
39.2026,50744
39.209,48370
39.2153,48709
39.2216,48778
39.2279,46251
39.2342,46874
39.2405,45665
39.2468,43206
39.2531,41880
39.2594,42689
39.2658,42034
39.2721,41089
39.2784,39256
39.2847,39910
39.291,38731
39.2973,38303
39.3036,39169
39.3099,37736
39.3162,40359
39.3225,37714
39.3288,36570
39.3351,35733
39.3415,35812
39.3478,36724
39.3541,36818
39.3604,36869
39.3667,37346
39.373,37138
39.3793,36821
39.3856,36094
39.3919,35288
39.3982,38087
39.4045,34651
39.4108,35811
39.4171,34360
39.4235,32093
39.4298,33334
39.4361,34032
39.4424,35511
39.4487,34795
39.455,33846
39.4613,33341
39.4676,34078
39.4739,34288
39.4802,35873
39.4866,33086
39.4929,33402
39.4992,33886
39.5055,31849
39.5118,32565
39.5181,33553
39.5244,33026
39.5307,35841
39.537,35149
39.5433,32116
39.5496,34113
39.5559,31534
39.5622,30949
39.5686,34015
39.5749,30624
39.5812,32002
39.5875,32594
39.5938,33880
39.6001,33630
39.6064,31419
39.6127,33094
39.619,31577
39.6253,32507
39.6317,31365
39.638,29501
39.6443,32724
39.6506,29661
39.6569,32340
39.6632,30330
39.6695,31771
39.6758,30595
39.6821,31131
39.6884,30359
39.6947,31372
39.701,30230
39.7074,31661
39.7137,30561
39.72,31961
39.7263,32149
39.7326,31010
39.7389,31176
39.7452,33272
39.7515,30537
39.7578,30551
39.7641,29829
39.7704,30590
39.7768,31669
39.7831,30584
39.7894,32145
39.7957,29183
39.802,30992
39.8083,32187
39.8146,31163
39.8209,30938
39.8272,32692
39.8335,29394
39.8398,32059
39.8461,31535
39.8525,30294
39.8588,28696
39.8651,29460
39.8714,29600
39.8777,29529
39.884,30623
39.8903,29672
39.8966,29931
39.9029,29843
39.9092,29879
39.9155,31664
39.9218,30446
39.9282,30876
39.9345,31108
39.9408,30128
39.9471,30153
39.9534,31158
39.9597,30681
39.966,30130
39.9723,31299
39.9786,31011
39.9849,29438
39.9912,31138
39.9976,31063
40.0039,31395
40.0102,30541
40.0165,28394
40.0228,32127
40.0291,29931
40.0354,29826
40.0417,30606
40.048,28178
40.0543,29119
40.0606,29511
40.0669,30305
40.0733,29856
40.0796,30528
40.0859,29348
40.0922,31753
40.0985,29262
40.1048,31241
40.1111,29818
40.1174,29874
40.1237,30209
40.13,30617
40.1363,30444
40.1427,30932
40.1489,29708
40.1553,28672
40.1616,29417
40.1679,30655
40.1742,29227
40.1805,28852
40.1868,28542
40.1931,27465
40.1994,31392
40.2057,28411
40.212,27829
40.2184,31252
40.2247,30852
40.231,28389
40.2373,31293
40.2436,26800
40.2499,27838
40.2562,27461
40.2625,28555
40.2688,26743
40.2751,27855
40.2814,30150
40.2877,29984
40.294,28480
40.3004,29826
40.3067,26872
40.313,27582
40.3193,32178
40.3256,30117
40.3319,27379
40.3382,29048
40.3445,29686
40.3508,29437
40.3571,27178
40.3635,29007
40.3698,27375
40.3761,28709
40.3824,29319
40.3887,31272
40.395,28873
40.4013,28198
40.4076,28312
40.4139,29690
40.4202,27999
40.4265,31033
40.4328,29501
40.4392,29390
40.4455,29845
40.4518,27569
40.4581,28866
40.4644,28917
40.4707,27951
40.477,28507
40.4833,28597
40.4896,27415
40.4959,27268
40.5022,25722
40.5086,28377
40.5149,28412
40.5212,26377
40.5275,28618
40.5338,28386
40.5401,28499
40.5464,28574
40.5527,30639
40.559,27964
40.5653,31314
40.5716,29053
40.5779,29988
40.5843,27945
40.5906,29366
40.5969,28341
40.6032,29549
40.6095,28507
40.6158,27555
40.6221,31595
40.6284,29336
40.6347,27481
40.641,28789
40.6473,30617
40.6536,28385
40.66,28046
40.6663,28258
40.6726,27384
40.6789,29501
40.6852,28734
40.6915,28425
40.6978,27834
40.7041,28600
40.7104,29105
40.7167,28253
40.723,29191
40.7294,28994
40.7357,26548
40.742,29493
40.7483,27835
40.7546,28697
40.7609,27631
40.7672,28024
40.7735,29416
40.7798,27196
40.7861,29132
40.7924,28319
40.7987,28832
40.8051,27402
40.8114,28184
40.8177,29019
40.824,28142
40.8303,28229
40.8366,28886
40.8429,27890
40.8492,28469
40.8555,29547
40.8618,28095
40.8681,28439
40.8745,28467
40.8807,28355
40.8871,30513
40.8934,28345
40.8997,28443
40.906,29191
40.9123,25203
40.9186,28212
40.9249,27476
40.9312,25720
40.9375,27471
40.9438,28642
40.9502,27805
40.9565,26581
40.9628,28138
40.9691,30478
40.9754,28031
40.9817,28101
40.988,27889
40.9943,26014
41.0006,27481
41.0069,28546
41.0132,27200
41.0196,28662
41.0259,27383
41.0322,30464
41.0385,29889
41.0448,27825
41.0511,28815
41.0574,28434
41.0637,29385
41.07,29105
41.0763,27449
41.0826,29114
41.0889,27875
41.0953,27825
41.1016,27683
41.1079,29104
41.1142,29443
41.1205,28120
41.1268,28741
41.1331,28065
41.1394,28492
41.1457,27174
41.152,28085
41.1583,26420
41.1647,27157
41.171,28867
41.1773,28078
41.1836,25688
41.1899,27132
41.1962,27041
41.2025,26331
41.2088,27746
41.2151,27956
41.2214,26321
41.2277,28419
41.234,27575
41.2403,27350
41.2467,28499
41.253,28684
41.2593,26942
41.2656,28093
41.2719,27729
41.2782,26833
41.2845,28875
41.2908,27154
41.2971,29991
41.3034,27705
41.3097,27187
41.3161,26375
41.3224,27307
41.3287,27859
41.335,27653
41.3413,27442
41.3476,28242
41.3539,26515
41.3602,25278
41.3665,27706
41.3728,26081
41.3791,29178
41.3854,26341
41.3918,28540
41.3981,27864
41.4044,27901
41.4107,28316
41.417,26907
41.4233,26778
41.4296,26879
41.4359,27284
41.4422,28452
41.4485,26442
41.4548,28878
41.4612,27219
41.4674,27937
41.4738,29455
41.4801,27107
41.4864,27767
41.4927,29562
41.499,25237
41.5053,29196
41.5116,27263
41.5179,27811
41.5242,26947
41.5306,27139
41.5369,27474
41.5432,27030
41.5495,27316
41.5558,27340
41.5621,27823
41.5684,28607
41.5747,26821
41.581,26826
41.5873,25458
41.5936,27024
41.5999,27854
41.6063,27988
41.6125,25966
41.6189,27146
41.6252,26469
41.6315,27371
41.6378,27592
41.6441,28246
41.6504,27726
41.6567,26774
