D:\JEFF_NEW\NEW_DATA\20230701_ALKANESTANDARD_JEREMYKRI_RUN1.d  1 Jul 23   8:32 am
Start of data points
3.89325,12199
3.89957,10076
3.90587,9376
3.91218,10777
3.91848,8690
3.9248,10148
3.93112,9960
3.93742,9922
3.94373,10278
3.95003,10335
3.95635,10132
3.96265,9055
3.96897,8628
3.97527,10573
3.98158,10714
3.98788,16126
3.9942,32273
4.0005,53817
4.00682,78638
4.01312,76817
4.01943,63641
4.02573,47093
4.03205,53857
4.03835,87461
4.04467,140070
4.05097,189505
4.05728,191034
4.06358,154798
4.0699,98130
4.0762,70088
4.08252,45703
4.08882,41088
4.09513,37916
4.10145,36943
4.10775,34857
4.11407,34877
4.12037,35025
4.12668,35902
4.13298,42098
4.1393,45853
4.1456,44909
4.15192,40695
4.15822,47529
4.16453,66554
4.17083,98222
4.17715,143355
4.18345,198765
4.18977,247348
4.19607,285547
4.20238,281589
4.20868,224194
4.215,158867
4.2213,113725
4.22762,89729
4.23392,79953
4.24023,73574
4.24653,67772
4.25285,58384
4.25915,55603
4.26547,48859
4.27177,42809
4.27808,41695
4.2844,38094
4.2907,36432
4.29702,36167
4.30332,35227
4.30963,34064
4.31593,34144
4.32225,33408
4.32855,29063
4.33487,27875
4.34117,28468
4.34748,26104
4.35378,25161
4.3601,20502
4.3664,14948
4.37272,11032
4.37902,9140
4.38533,8063
4.39163,10361
4.39795,11450
4.40425,12936
4.41057,14483
4.41687,12197
4.42318,11005
4.42948,10543
4.4358,13468
4.4421,18534
4.44842,26708
4.45473,33281
4.46103,34516
4.46735,27150
4.47365,21663
4.47997,15900
4.48627,14051
4.49258,14889
4.49888,14567
4.5052,15364
4.5115,21235
4.51782,20967
4.52412,20745
4.53043,18820
4.53673,18191
4.54305,21957
4.54935,28203
4.55567,38672
4.56197,49721
4.56828,49220
4.57458,43293
4.5809,36968
4.5872,28004
4.59352,25778
4.59982,21162
4.60613,22562
4.61243,19169
4.61875,19762
4.62507,18868
4.63137,19433
4.63768,24680
4.64398,29213
4.6503,31178
4.6566,26622
4.66292,22780
4.66922,21983
4.67553,21935
4.68183,26998
4.68815,33157
4.69445,40799
4.70077,46186
4.70707,41199
4.71338,37091
4.71968,31914
4.726,24650
4.7323,21567
4.73862,21744
4.74492,22487
4.75123,22285
4.75753,20330
4.76385,20953
4.77015,21644
4.77647,22755
4.78277,27148
4.78908,27780
4.7954,30292
4.8017,28567
4.80802,23938
4.81432,20623
4.82063,18660
4.82693,25936
4.83325,61073
4.83955,224635
4.84587,763642
4.85217,2014624
4.85848,4207394
4.86478,7312373
4.8711,10865371
4.8774,14340734
4.88372,17671662
4.89002,20825182
4.89633,24018478
4.90263,26675462
4.90895,27285470
4.91525,22821108
4.92157,14462103
4.92787,8887910
4.93418,6857244
4.94048,5980446
4.9468,5386920
4.9531,4900848
4.95942,4547877
4.96573,4196471
4.97203,3968489
4.97835,3715250
4.98465,3517698
4.99097,3329979
4.99727,3148355
5.00358,3001103
5.00988,2877468
5.0162,2736611
5.0225,2577627
5.02882,2405759
5.03512,2109247
5.04143,1640839
5.04773,1083341
5.05405,600625
5.06035,262441
5.06667,98270
5.07297,35811
5.07928,20358
5.08558,15065
5.0919,15219
5.0982,15891
5.10452,15174
5.11082,15529
5.11713,15294
5.12343,14130
5.12975,12155
5.13605,11370
5.14237,10529
5.14868,9610
5.15498,9078
5.1613,9058
5.1676,9786
5.17392,8784
5.18022,9121
5.18653,9556
5.19283,8440
5.19915,7208
5.20545,8996
5.21177,9885
5.21807,7665
5.22438,8392
5.23068,7067
5.237,7737
5.2433,8095
5.24962,7914
5.25592,7239
5.26223,8933
5.26853,8754
5.27485,9219
5.28115,8930
5.28747,8431
5.29377,10062
5.30008,13586
5.30638,15396
5.3127,18925
5.31902,24374
5.32532,28224
5.33163,26762
5.33793,22637
5.34425,19395
5.35055,15653
5.35687,15620
5.36317,12422
5.36948,14544
5.37578,11114
5.3821,10614
5.3884,9124
5.39472,10400
5.40102,10043
5.40733,9758
5.41363,9357
5.41995,8356
5.42625,9533
5.43257,9602
5.43887,7379
5.44518,8874
5.45148,7756
5.4578,7660
5.4641,8041
5.47042,7764
5.47672,7262
5.48303,7495
5.48935,7670
5.49565,6293
5.50197,6720
5.50827,6764
5.51458,6256
5.52088,7081
5.5272,6883
5.5335,5109
5.53982,5328
5.54612,5840
5.55243,6247
5.55873,6104
5.56505,4505
5.57135,4783
5.57767,4992
5.58397,5156
5.59028,5965
5.59658,4722
5.6029,5500
5.6092,4863
5.61552,5045
5.62182,5781
5.62813,4355
5.63443,5016
5.64075,5460
5.64705,5491
5.65337,5570
5.65968,5212
5.66598,4663
5.6723,5316
5.6786,4762
5.68492,6304
5.69122,4760
5.69753,5611
5.70383,4649
5.71015,5521
5.71645,4810
5.72277,4991
5.72907,4300
5.73538,5203
5.74168,4814
5.748,5211
5.7543,4536
5.76062,5053
5.76692,5953
5.77323,5232
5.77953,6384
5.78585,7099
5.79215,9151
5.79847,8285
5.80477,10784
5.81108,10334
5.81738,11289
5.8237,11005
5.83002,10823
5.83632,9308
5.84263,7890
5.84893,6977
5.85525,7442
5.86155,7037
5.86787,6855
5.87417,6663
5.88048,6386
5.88678,6842
5.8931,7218
5.8994,7777
5.90572,6864
5.91202,6352
5.91833,7575
5.92463,7553
5.93095,6493
5.93725,6215
5.94357,6021
5.94987,6205
5.95618,5871
5.96248,5828
5.9688,5666
5.9751,5512
5.98142,4669
5.98772,5449
5.99403,4395
6.00033,3774
6.00665,4076
6.01297,4865
6.01927,3469
6.02558,5565
6.03188,5373
6.0382,5673
6.0445,5966
6.05082,6056
6.05712,5880
6.06343,5912
6.06973,6395
6.07605,8970
6.08235,7876
6.08867,8314
6.09497,8259
6.10128,7419
6.10758,6943
6.1139,7503
6.1202,8256
6.12652,8809
6.13282,8273
6.13913,10453
6.14543,10120
6.15175,11046
6.15805,13996
6.16437,13461
6.17067,13669
6.17698,14687
6.1833,15148
6.1896,14945
6.19592,16282
6.20222,14814
6.20853,13309
6.21483,12942
6.22115,11603
6.22745,10125
6.23377,11454
6.24007,10067
6.24638,9927
6.25268,10095
6.259,9227
6.2653,9160
6.27162,9202
6.27792,8840
6.28423,9635
6.29053,11009
6.29685,12199
6.30315,11612
6.30947,13236
6.31577,15413
6.32208,15558
6.32838,17940
6.3347,20228
6.341,19507
6.34732,18559
6.35363,17816
6.35993,15148
6.36625,14532
6.37255,12495
6.37887,10678
6.38517,10237
6.39148,9056
6.39778,9230
6.4041,8165
6.4104,8357
6.41672,9135
6.42302,8698
6.42933,8983
6.43563,8573
6.44195,7275
6.44825,6556
6.45457,7618
6.46087,7734
6.46718,6147
6.47348,7815
6.4798,6420
6.4861,6427
6.49242,7030
6.49872,6935
6.50503,6023
6.51133,6123
6.51765,6108
6.52397,7303
6.53027,6036
6.53658,6158
6.54288,5693
6.5492,5240
6.5555,5467
6.56182,5225
6.56812,5979
6.57443,4389
6.58073,4696
6.58705,4451
6.59335,4236
6.59967,5328
6.60597,4094
6.61228,4416
6.61858,5198
6.6249,4892
6.6312,4899
6.63752,4594
6.64382,4475
6.65013,5279
6.65643,5147
6.66275,5191
6.66905,4995
6.67537,6174
6.68167,6221
6.68798,6384
6.6943,6313
6.7006,6563
6.70692,5960
6.71322,6126
6.71953,4914
6.72583,4229
6.73215,4859
6.73845,4606
6.74477,4361
6.75107,3984
6.75738,4514
6.76368,4585
6.77,4143
6.7763,5359
6.78262,4495
6.78892,6444
6.79523,6964
6.80153,7871
6.80785,9693
6.81415,11777
6.82047,12212
6.82677,10657
6.83308,9374
6.83938,9891
6.8457,7842
6.852,8180
6.85832,8226
6.86462,9082
6.87093,10499
6.87725,13605
6.88355,15107
6.88987,16094
6.89617,15577
6.90248,14452
6.90878,12542
6.9151,10332
6.9214,9912
6.92772,8179
6.93402,7427
6.94033,7482
6.94663,6808
6.95295,7234
6.95925,7676
6.96557,6372
6.97187,6222
6.97818,8371
6.98448,6087
6.9908,6461
6.9971,7668
7.00342,7834
7.00972,8070
7.01603,8120
7.02233,8204
7.02865,7818
7.03495,6207
7.04127,6636
7.04758,6588
7.05388,6784
7.0602,6591
7.0665,9755
7.07282,11691
7.07912,18712
7.08543,27013
7.09173,32895
7.09805,38137
7.10435,35367
7.11067,32728
7.11697,26529
7.12328,24320
7.12958,19901
7.1359,16180
7.1422,14524
7.14852,11908
7.15482,12917
7.16113,12425
7.16743,11364
7.17375,11612
7.18005,11436
7.18637,10014
7.19267,10229
7.19898,8408
7.20528,10379
7.2116,8098
7.21792,7734
7.22422,6412
7.23053,5050
7.23683,2953
7.24315,4060
7.24945,3301
7.25577,3532
7.26207,4311
7.26838,3372
7.27468,3876
7.281,4285
7.2873,4604
7.29362,6133
7.29992,6084
7.30623,6915
7.31253,6945
7.31885,5704
7.32515,4859
7.33147,5800
7.33777,5438
7.34408,5601
7.35038,6724
7.3567,5775
7.363,6658
7.36932,6780
7.37562,6960
7.38193,7173
7.38825,5713
7.39455,5862
7.40087,4622
7.40717,4876
7.41348,5528
7.41978,5070
7.4261,5096
7.4324,4798
7.43872,5547
7.44502,4175
7.45133,5085
7.45763,4052
7.46395,4398
7.47025,5089
7.47657,3636
7.48287,4542
7.48918,4483
7.49548,4409
7.5018,4257
7.5081,4918
7.51442,4238
7.52072,4826
7.52703,5832
7.53333,6566
7.53965,8073
7.54595,10991
7.55227,12698
7.55858,17729
7.56488,22324
7.5712,24557
7.5775,27831
7.58382,29920
7.59012,27637
7.59643,26662
7.60273,23741
7.60905,23473
7.61535,25455
7.62167,29443
7.62797,29178
7.63428,28728
7.64058,32166
7.6469,30352
7.6532,28143
7.65952,26107
7.66582,25253
7.67213,25714
7.67843,25747
7.68475,25363
7.69105,23134
7.69737,21825
7.70367,17872
7.70998,15942
7.71628,15333
7.7226,14936
7.7289,14902
7.73522,12860
7.74153,13447
7.74783,12523
7.75415,11614
7.76045,13259
7.76677,14015
7.77307,12563
7.77938,13445
7.78568,15337
7.792,13994
7.7983,14084
7.80462,17249
7.81092,16601
7.81723,17256
7.82353,17373
7.82985,19316
7.83615,21099
7.84247,21394
7.84877,29692
7.85508,34317
7.86138,37646
7.8677,42158
7.874,43590
7.88032,45357
7.88662,43151
7.89293,46271
7.89923,42549
7.90555,36042
7.91187,33698
7.91817,28576
7.92448,26869
7.93078,22320
7.9371,19553
7.9434,18993
7.94972,17097
7.95602,17290
7.96233,14171
7.96863,12113
7.97495,12491
7.98125,10859
7.98757,11267
7.99387,10775
8.00018,8960
8.00648,7005
8.0128,5119
8.0191,7594
8.02542,8455
8.03172,17129
8.03803,51236
8.04433,156225
8.05065,445392
8.05695,1089515
8.06327,2262053
8.06957,4118724
8.07588,6518044
8.0822,9318903
8.0885,12476383
8.09482,15906294
8.10112,19398742
8.10743,22532594
8.11373,25920610
8.12005,29086978
8.12635,31433662
8.13267,32339216
8.13897,30774760
8.14528,23250090
8.15158,14207546
8.1579,9267787
8.1642,7251154
8.17052,6305402
8.17682,5525404
8.18313,4579945
8.18943,3478890
8.19575,2319916
8.20205,1299663
8.20837,624722
8.21467,257386
8.22098,93706
8.22728,33201
8.2336,14153
8.2399,9820
8.24622,9236
8.25253,8964
8.25883,10184
8.26515,8764
8.27145,9912
8.27777,10116
8.28407,11735
8.29038,12880
8.29668,13044
8.303,13638
8.3093,12873
8.31562,11064
8.32192,12599
8.32823,13337
8.33453,16238
8.34085,19077
8.34715,19789
8.35347,20399
8.35977,19473
8.36608,17265
8.37238,15338
8.3787,14199
8.385,13601
8.39132,14078
8.39762,11781
8.40393,11838
8.41023,10732
8.41655,11088
8.42287,8623
8.42917,8753
8.43548,8358
8.44178,7125
8.4481,7247
8.4544,8369
8.46072,7593
8.46702,6855
8.47333,8247
8.47963,7530
8.48595,6464
8.49225,7012
8.49857,6600
8.50487,7717
8.51118,6226
8.51748,4119
8.5238,4306
8.5301,4715
8.53642,4715
8.54272,3783
8.54903,4626
8.55533,5779
8.56165,6567
8.56795,7798
8.57427,9654
8.58057,10426
8.58688,10191
8.59318,11246
8.5995,15075
8.60582,17837
8.61212,23542
8.61843,26159
8.62473,30464
8.63105,29868
8.63735,29199
8.64367,26035
8.64997,20804
8.65628,19955
8.66258,14875
8.6689,15320
8.6752,13874
8.68152,11798
8.68782,12465
8.69413,11061
8.70043,10750
8.70675,9260
8.71305,10485
8.71937,8630
8.72567,8158
8.73198,9273
8.73828,11527
8.7446,12462
8.7509,15759
8.75722,14367
8.76352,15416
8.76983,17946
8.77615,18686
8.78245,16025
8.78877,14378
8.79507,11724
8.80138,9432
8.80768,8808
8.814,9452
8.8203,9352
8.82662,10485
8.83292,10134
8.83923,9898
8.84553,9820
8.85185,10182
8.85815,10023
8.86447,12966
8.87077,16684
8.87708,27832
8.88338,44564
8.8897,69793
8.896,98751
8.90232,116934
8.90862,129483
8.91493,138495
8.92123,128447
8.92755,119673
8.93385,101775
8.94017,91166
8.94648,74013
8.95278,67993
8.9591,62365
8.9654,53578
8.97172,52148
8.97802,43056
8.98433,40248
8.99063,39976
8.99695,39338
9.00325,35520
9.00957,35350
9.01587,29303
9.02218,29119
9.02848,26373
9.0348,21933
9.0411,17047
9.04742,14386
9.05372,11502
9.06003,9979
9.06633,8913
9.07265,8853
9.07895,7321
9.08527,6824
9.09157,6870
9.09788,7964
9.10418,7749
9.1105,7995
9.11682,6128
9.12312,6731
9.12943,7699
9.13573,7807
9.14205,8082
9.14835,6422
9.15467,6635
9.16097,8135
9.16728,6826
9.17358,7339
9.1799,7048
9.1862,6270
9.19252,7212
9.19882,6754
9.20513,5498
9.21143,5036
9.21775,5089
9.22405,7457
9.23037,8970
9.23667,9556
9.24298,9878
9.24928,10516
9.2556,10403
9.2619,11544
9.26822,9039
9.27452,9269
9.28083,7736
9.28715,8611
9.29345,6191
9.29977,6706
9.30607,7070
9.31238,6568
9.31868,4841
9.325,5856
9.3313,4568
9.33762,5903
9.34392,5536
9.35023,6788
9.35653,5091
9.36285,5497
9.36915,5292
9.37547,4729
9.38177,4141
9.38808,5443
9.39438,5934
9.4007,4798
9.407,5538
9.41332,5412
9.41962,7603
9.42593,8171
9.43223,6886
9.43855,8296
9.44485,7494
9.45117,6871
9.45747,8719
9.46378,6766
9.4701,6503
9.4764,5330
9.48272,5105
9.48902,5736
9.49533,4821
9.50163,5352
9.50795,5621
9.51425,4725
9.52057,5969
9.52687,4788
9.53318,4490
9.53948,5375
9.5458,5959
9.5521,5910
9.55842,7362
9.56472,7199
9.57103,7414
9.57733,6882
9.58365,7799
9.58995,7854
9.59627,8361
9.60257,6650
9.60888,9092
9.61518,14853
9.6215,22181
9.6278,31657
9.63412,47046
9.64043,55463
9.64673,68018
9.65305,70219
9.65935,68512
9.66567,65149
9.67197,56037
9.67828,48538
9.68458,45880
9.6909,39177
9.6972,37660
9.70352,31378
9.70982,31060
9.71613,26920
9.72243,26073
9.72875,24020
9.73505,22693
9.74137,21230
9.74767,18700
9.75398,15976
9.76028,12049
9.7666,10384
9.7729,8118
9.77922,7399
9.78552,7869
9.79183,7143
9.79813,8078
9.80445,6027
9.81077,5652
9.81707,7374
9.82338,6700
9.82968,6498
9.836,6111
9.8423,7643
9.84862,5691
9.85492,6650
9.86123,7122
9.86753,7457
9.87385,5016
9.88015,6225
9.88647,6477
9.89277,6481
9.89908,5530
9.90538,6797
9.9117,5244
9.918,6548
9.92432,4478
9.93062,6586
9.93693,4255
9.94323,6218
9.94955,6636
9.95585,7922
9.96217,14483
9.96847,22142
9.97478,21284
9.9811,29079
9.9874,52108
9.99372,58140
10,38186
10.0063,37530
10.0126,34085
10.019,30023
10.0253,38875
10.0316,35422
10.0379,31783
10.0442,20279
10.0505,19006
10.0568,24076
10.0631,15748
10.0694,20307
10.0757,18115
10.082,11984
10.0883,12125
10.0947,11160
10.101,8532
10.1073,9377
10.1136,6600
10.1199,6293
10.1262,6478
10.1325,7659
10.1388,6358
10.1451,7757
10.1514,6460
10.1577,7285
10.1641,10038
10.1704,13596
10.1767,15898
10.183,20635
10.1893,21485
10.1956,20075
10.2019,21620
10.2082,17522
10.2145,15494
10.2208,12590
10.2271,10521
10.2334,11434
10.2398,10336
10.2461,10228
10.2524,8342
10.2587,7545
10.265,6399
10.2713,7704
10.2776,7535
10.2839,6676
10.2902,6231
10.2965,5964
10.3028,5761
10.3091,5058
10.3155,4992
10.3218,6539
10.3281,8052
10.3344,4774
10.3407,5290
10.347,5860
10.3533,5618
10.3596,7445
10.3659,11493
10.3722,19614
10.3785,42113
10.3849,77833
10.3912,130813
10.3975,185881
10.4038,249317
10.4101,295584
10.4164,321926
10.4227,322265
10.429,300755
10.4353,264954
10.4416,232417
10.4479,199120
10.4542,166045
10.4606,148662
10.4669,124849
10.4732,115180
10.4795,105976
10.4858,94676
10.4921,84381
10.4984,74620
10.5047,66660
10.511,57662
10.5173,46967
10.5236,36659
10.53,27200
10.5363,19940
10.5426,18165
10.5489,15925
10.5552,16011
10.5615,14757
10.5678,14993
10.5741,16297
10.5804,21502
10.5867,29201
10.593,46659
10.5993,72211
10.6057,102621
10.612,135580
10.6183,163716
10.6246,170422
10.6309,163265
10.6372,136917
10.6435,108789
10.6498,86627
10.6561,71727
10.6624,56887
10.6687,47405
10.6751,37420
10.6814,30362
10.6877,24040
10.694,18137
10.7003,16332
10.7066,12975
10.7129,10963
10.7192,11607
10.7255,10824
10.7318,11341
10.7381,8625
10.7444,9338
10.7508,8200
10.7571,8761
10.7634,8517
10.7697,8924
10.776,8135
10.7823,8223
10.7886,8526
10.7949,7761
10.8012,7414
10.8075,7051
10.8138,7452
10.8201,8091
10.8265,7124
10.8328,7820
10.8391,7538
10.8454,6414
10.8517,5137
10.858,6039
10.8643,6823
10.8706,7315
10.8769,7099
10.8832,5878
10.8895,5834
10.8959,6421
10.9022,6639
10.9085,5705
10.9148,5679
10.9211,7065
10.9274,6014
10.9337,8028
10.94,8185
10.9463,6673
10.9526,6180
10.9589,5862
10.9652,5919
10.9716,6600
10.9779,6615
10.9842,7214
10.9905,6991
10.9968,7319
11.0031,6249
11.0094,7055
11.0157,6267
11.022,7327
11.0283,7170
11.0346,6345
11.041,5805
11.0473,7550
11.0536,9086
11.0599,9052
11.0662,13255
11.0725,21663
11.0788,35345
11.0851,40077
11.0914,47870
11.0977,58412
11.104,53633
11.1103,45499
11.1167,36717
11.123,29225
11.1293,21380
11.1356,17863
11.1419,13216
11.1482,9822
11.1545,8372
11.1608,6543
11.1671,5567
11.1734,6334
11.1797,4978
11.186,5352
11.1924,5294
11.1987,5389
11.205,5142
11.2113,5503
11.2176,5660
11.2239,6423
11.2302,6412
11.2365,5217
11.2428,6588
11.2491,6230
11.2554,6573
11.2618,9515
11.2681,11959
11.2744,12784
11.2807,15161
11.287,14974
11.2933,16735
11.2996,17742
11.3059,16064
11.3122,16600
11.3185,17413
11.3248,18973
11.3311,19354
11.3375,25148
11.3438,24941
11.3501,25435
11.3564,24240
11.3627,23457
11.369,19983
11.3753,17539
11.3816,16206
11.3879,14741
11.3942,14028
11.4005,11635
11.4069,12065
11.4132,13645
11.4195,16289
11.4258,18323
11.4321,19377
11.4384,20854
11.4447,21141
11.451,21762
11.4573,20627
11.4636,15612
11.4699,14986
11.4762,13571
11.4826,12422
11.4889,9951
11.4952,9678
11.5015,9433
11.5078,7463
11.5141,7672
11.5204,7612
11.5267,8760
11.533,6310
11.5393,6448
11.5456,5100
11.552,5487
11.5583,5305
11.5646,5691
11.5709,4820
11.5772,6055
11.5835,5297
11.5898,4523
11.5961,5723
11.6024,8111
11.6087,15739
11.615,50551
11.6213,133966
11.6277,367030
11.634,897845
11.6403,1878420
11.6466,3417580
11.6529,5597311
11.6592,8414841
11.6655,11631736
11.6718,14970904
11.6781,18382952
11.6844,21876608
11.6907,25627516
11.697,28958852
11.7034,32471044
11.7097,35647668
11.716,38596612
11.7223,40457564
11.7286,39844936
11.7349,30463410
11.7412,11420976
11.7475,2033577
11.7538,281966
11.7601,48173
11.7664,16886
11.7728,12056
11.7791,12033
11.7854,11628
11.7917,13275
11.798,13204
11.8043,13280
11.8106,15070
11.8169,15257
11.8232,13742
11.8295,11662
11.8358,11135
11.8421,9517
11.8485,9839
11.8548,8557
11.8611,7782
11.8674,7955
11.8737,8534
11.88,7022
11.8863,7694
11.8926,7322
11.8989,7412
11.9052,6096
11.9115,5712
11.9179,5201
11.9242,6059
11.9305,4814
11.9368,4739
11.9431,4742
11.9494,5993
11.9557,4798
11.962,4421
11.9683,4516
11.9746,4295
11.9809,5353
11.9872,4521
11.9936,5182
11.9999,4906
12.0062,3712
12.0125,4111
12.0188,3409
12.0251,3754
12.0314,3967
12.0377,4139
12.044,4532
12.0503,4427
12.0566,5236
12.063,3738
12.0693,4129
12.0756,4291
12.0819,3803
12.0882,4769
12.0945,3939
12.1008,3821
12.1071,5051
12.1134,3582
12.1197,4336
12.126,3468
12.1323,3385
12.1387,3503
12.145,5662
12.1513,3621
12.1576,4906
12.1639,3110
12.1702,5186
12.1765,4248
12.1828,4545
12.1891,4230
12.1954,3917
12.2017,3832
12.208,5159
12.2144,3844
12.2207,3941
12.227,4188
12.2333,4997
12.2396,3157
12.2459,4841
12.2522,4108
12.2585,3633
12.2648,3683
12.2711,3869
12.2774,3055
12.2838,5084
12.2901,3637
12.2964,3369
12.3027,3425
12.309,3549
12.3153,4302
12.3216,3871
12.3279,4331
12.3342,4672
12.3405,3507
12.3468,3792
12.3531,4350
12.3595,4197
12.3658,3626
12.3721,4670
12.3784,6349
12.3847,5011
12.391,5893
12.3973,5886
12.4036,5022
12.4099,5469
12.4162,6244
12.4225,4838
12.4289,5201
12.4352,5691
12.4415,5355
12.4478,4860
12.4541,5394
12.4604,4315
12.4667,4685
12.473,4135
12.4793,4200
12.4856,4195
12.4919,3210
12.4982,3341
12.5046,4966
12.5109,3522
12.5172,2837
12.5235,2965
12.5298,3212
12.5361,3828
12.5424,2895
12.5487,3138
12.555,2661
12.5613,3063
12.5676,3361
12.574,2970
12.5803,2875
12.5866,3000
12.5929,3878
12.5992,3425
12.6055,3493
12.6118,1579
12.6181,3017
12.6244,3649
12.6307,3052
12.637,3939
12.6433,4254
12.6497,3483
12.656,4438
12.6623,4201
12.6686,3086
12.6749,4166
12.6812,4154
12.6875,4136
12.6938,3191
12.7001,3290
12.7064,3222
12.7127,3434
12.719,3210
12.7254,3396
12.7317,2592
12.738,2982
12.7443,3156
12.7506,2463
12.7569,3688
12.7632,4319
12.7695,3993
12.7758,4542
12.7821,3159
12.7884,3394
12.7948,4290
12.8011,4460
12.8074,3853
12.8137,3951
12.82,3501
12.8263,3319
12.8326,2247
12.8389,2751
12.8452,2948
12.8515,2873
12.8578,3284
12.8641,4779
12.8705,5038
12.8768,6049
12.8831,7571
12.8894,10458
12.8957,11461
12.902,13199
12.9083,14304
12.9146,13049
12.9209,10638
12.9272,8812
12.9335,7194
12.9399,5610
12.9462,4989
12.9525,3875
12.9588,2078
12.9651,2875
12.9714,3245
12.9777,3334
12.984,3302
12.9903,2911
12.9966,2803
13.0029,3644
13.0092,3383
13.0156,3250
13.0219,2859
13.0282,3547
13.0345,3708
13.0408,3631
13.0471,2740
13.0534,2190
13.0597,2996
13.066,2184
13.0723,2070
13.0786,2506
13.0849,3129
13.0913,2563
13.0976,2519
13.1039,2426
13.1102,2506
13.1165,3569
13.1228,3466
13.1291,5035
13.1354,5547
13.1417,4933
13.148,5129
13.1543,6162
13.1607,5646
13.167,5181
13.1733,5414
13.1796,5602
13.1859,5779
13.1922,5583
13.1985,6274
13.2048,5559
13.2111,5815
13.2174,4826
13.2237,5131
13.23,3125
13.2364,4767
13.2427,4955
13.249,5518
13.2553,5906
13.2616,5069
13.2679,6667
13.2742,7363
13.2805,7604
13.2868,7637
13.2931,8023
13.2994,6315
13.3058,4265
13.3121,4184
13.3184,4414
13.3247,3444
13.331,3512
13.3373,2503
13.3436,2583
13.3499,3263
13.3562,3106
13.3625,3454
13.3688,2436
13.3751,3055
13.3815,3095
13.3878,2584
13.3941,3549
13.4004,3478
13.4067,3945
13.413,3265
13.4193,4342
13.4256,3440
13.4319,3425
13.4382,2814
13.4445,3644
13.4509,3536
13.4572,3504
13.4635,3612
13.4698,3773
13.4761,3538
13.4824,3413
13.4887,3822
13.495,3274
13.5013,3155
13.5076,3468
13.5139,3692
13.5202,3092
13.5266,2981
13.5329,3977
13.5392,3320
13.5455,4798
13.5518,5289
13.5581,5753
13.5644,7275
13.5707,7788
13.577,8135
13.5833,7504
13.5896,7712
13.5959,6163
13.6023,5009
13.6086,4911
13.6149,5257
13.6212,6018
13.6275,6596
13.6338,7282
13.6401,7459
13.6464,6932
13.6527,5828
13.659,6279
13.6653,6060
13.6717,4913
13.678,3729
13.6843,3919
13.6906,3975
13.6969,3057
13.7032,2518
13.7095,3183
13.7158,3552
13.7221,3318
13.7284,3049
13.7347,3760
13.741,6432
13.7474,7897
13.7537,10699
13.76,12043
13.7663,13426
13.7726,10269
13.7789,9323
13.7852,8243
13.7915,6012
13.7978,4872
13.8041,5025
13.8104,4719
13.8168,3552
13.8231,5380
13.8294,5045
13.8357,3650
13.842,3780
13.8483,4536
13.8546,3415
13.8609,4189
13.8672,4190
13.8735,6407
13.8798,6181
13.8861,6598
13.8925,8107
13.8988,9813
13.9051,12989
13.9114,15957
13.9177,18027
13.924,18425
13.9303,16495
13.9366,17172
13.9429,13087
13.9492,10015
13.9555,9414
13.9619,6320
13.9682,5870
13.9745,5060
13.9808,5083
13.9871,4137
13.9934,3541
13.9997,3101
14.006,3415
14.0123,3076
14.0186,3417
14.0249,3134
14.0312,4151
14.0376,3188
14.0439,4633
14.0502,3871
14.0565,3836
14.0628,3542
14.0691,3611
14.0754,3310
14.0817,5205
14.088,4606
14.0943,5595
14.1006,9652
14.1069,13953
14.1133,17425
14.1196,20269
14.1259,24972
14.1322,22003
14.1385,20365
14.1448,16583
14.1511,14492
14.1574,11776
14.1637,10574
14.17,8921
14.1763,8240
14.1827,8377
14.189,6360
14.1953,6250
14.2016,7707
14.2079,6535
14.2142,6543
14.2205,4568
14.2268,5248
14.2331,3486
14.2394,6002
14.2457,3595
14.252,4564
14.2584,5175
14.2647,6485
14.271,5346
14.2773,6492
14.2836,8646
14.2899,7051
14.2962,8179
14.3025,6915
14.3088,7296
14.3151,7557
14.3214,8027
14.3278,9028
14.3341,9928
14.3404,9758
14.3467,9187
14.353,7871
14.3593,6968
14.3656,7494
14.3719,6317
14.3782,6086
14.3845,6669
14.3908,6281
14.3971,4916
14.4035,4922
14.4098,4595
14.4161,4657
14.4224,4014
14.4287,5365
14.435,5717
14.4413,5037
14.4476,5787
14.4539,6035
14.4602,6897
14.4665,7668
14.4729,6776
14.4792,7635
14.4855,7097
14.4918,6656
14.4981,6171
14.5044,5495
14.5107,5310
14.517,5432
14.5233,4793
14.5296,3812
14.5359,4366
14.5422,5335
14.5486,4510
14.5549,4525
14.5612,5994
14.5675,7225
14.5738,7718
14.5801,9586
14.5864,12284
14.5927,14954
14.599,16210
14.6053,17668
14.6116,19014
14.6179,18199
14.6243,16153
14.6306,13297
14.6369,11309
14.6432,9504
14.6495,8243
14.6558,6604
14.6621,7332
14.6684,6305
14.6747,7115
14.681,6865
14.6873,8166
14.6937,8064
14.7,8601
14.7063,9535
14.7126,9664
14.7189,11724
14.7252,12120
14.7315,12025
14.7378,10991
14.7441,11377
14.7504,11744
14.7567,12429
14.763,15581
14.7694,18062
14.7757,19315
14.782,19854
14.7883,19302
14.7946,16669
14.8009,14354
14.8072,12809
14.8135,10308
14.8198,8807
14.8261,9580
14.8324,11233
14.8388,12938
14.8451,13494
14.8514,14716
14.8577,14458
14.864,13777
14.8703,14474
14.8766,13798
14.8829,11539
14.8892,10733
14.8955,9643
14.9018,7763
14.9081,8088
14.9145,5175
14.9208,5229
14.9271,5475
14.9334,5093
14.9397,5113
14.946,5827
14.9523,8695
14.9586,10066
14.9649,11885
14.9712,14905
14.9775,16176
14.9838,17488
14.9902,18778
14.9965,16033
15.0028,15379
15.0091,16488
15.0154,16460
15.0217,15738
15.028,14605
15.0343,13317
15.0406,11971
15.0469,11097
15.0532,11146
15.0596,11053
15.0659,11357
15.0722,16510
15.0785,30599
15.0848,83230
15.0911,221603
15.0974,550390
15.1037,1251586
15.11,2466419
15.1163,4384424
15.1226,6981920
15.1289,10081928
15.1353,13396789
15.1416,17160782
15.1479,20925578
15.1542,25154260
15.1605,29397662
15.1668,33279282
15.1731,36951904
15.1794,39987520
15.1857,42782488
15.192,45163136
15.1983,45589456
15.2047,37705756
15.211,15602120
15.2173,2810196
15.2236,337788
15.2299,47763
15.2362,20966
15.2425,16533
15.2488,14638
15.2551,13886
15.2614,15176
15.2677,17490
15.274,22280
15.2804,30640
15.2867,45976
15.293,72120
15.2993,91100
15.3056,111384
15.3119,112495
15.3182,97182
15.3245,79051
15.3308,54854
15.3371,40579
15.3434,27191
15.3498,19566
15.3561,15981
15.3624,14535
15.3687,14686
15.375,14369
15.3813,12120
15.3876,11384
15.3939,11524
15.4002,12310
15.4065,11064
15.4128,10658
15.4191,10915
15.4255,9945
15.4318,9163
15.4381,9378
15.4444,8911
15.4507,7416
15.457,7125
15.4633,8061
15.4696,8727
15.4759,10202
15.4822,8456
15.4885,11280
15.4948,11985
15.5012,12677
15.5075,12835
15.5138,11736
15.5201,12790
15.5264,13185
15.5327,13091
15.539,12151
15.5453,10764
15.5516,10844
15.5579,10884
15.5642,10421
15.5706,11313
15.5769,11973
15.5832,13421
15.5895,15787
15.5958,17958
15.6021,18313
15.6084,20472
15.6147,20809
15.621,20417
15.6273,17974
15.6336,17361
15.6399,14855
15.6463,14026
15.6526,11538
15.6589,13036
15.6652,14502
15.6715,14809
15.6778,14456
15.6841,14772
15.6904,12090
15.6967,9881
15.703,8640
15.7093,8875
15.7157,5608
15.722,7377
15.7283,6213
15.7346,5937
15.7409,5575
15.7472,4591
15.7535,6719
15.7598,6105
15.7661,6196
15.7724,10239
15.7787,9929
15.785,11239
15.7914,11834
15.7977,11451
15.804,9865
15.8103,10018
15.8166,7362
15.8229,7705
15.8292,7450
15.8355,6446
15.8418,7325
15.8481,8375
15.8544,5833
15.8608,5545
15.8671,6396
15.8734,5455
15.8797,6467
15.886,6692
15.8923,4120
15.8986,5669
15.9049,4914
15.9112,5964
15.9175,5289
15.9238,5195
15.9301,4525
15.9365,4335
15.9428,5309
15.9491,6267
15.9554,5930
15.9617,7114
15.968,6696
15.9743,8085
15.9806,6315
15.9869,6933
15.9932,7282
15.9995,7352
16.0058,6464
16.0121,6344
16.0185,5210
16.0248,4491
16.0311,4314
16.0374,4698
16.0437,4968
16.05,5052
16.0563,6090
16.0626,7538
16.0689,5879
16.0752,5983
16.0816,7942
16.0879,8909
16.0942,11358
16.1005,12311
16.1068,12973
16.1131,16209
16.1194,13292
16.1257,12746
16.132,9672
16.1383,7980
16.1446,7913
16.1509,6008
16.1573,4689
16.1636,4898
16.1699,4087
16.1762,4187
16.1825,3432
16.1888,3271
16.1951,3862
16.2014,3040
16.2077,2780
16.214,2174
16.2203,2715
16.2266,2540
16.2329,4102
16.2393,3304
16.2456,2412
16.2519,3869
16.2582,3885
16.2645,5708
16.2708,6895
16.2771,10406
16.2834,14249
16.2897,17833
16.296,19254
16.3024,17035
16.3087,16285
16.315,11865
16.3213,7750
16.3276,6339
16.3339,4161
16.3402,3333
16.3465,3905
16.3528,3634
16.3591,4076
16.3654,5031
16.3717,3631
16.3781,3729
16.3844,4534
16.3907,4555
16.397,4791
16.4033,4555
16.4096,5080
16.4159,6415
16.4222,6167
16.4285,4836
16.4348,4550
16.4411,3058
16.4475,3248
16.4537,3820
16.4601,3385
16.4664,2523
16.4727,3238
16.479,3633
16.4853,2701
16.4916,3496
16.4979,4551
16.5042,3404
16.5105,3561
16.5168,3890
16.5232,2548
16.5295,3930
16.5358,2585
16.5421,3295
16.5484,2082
16.5547,2238
16.561,2068
16.5673,2258
16.5736,3329
16.5799,2271
16.5862,3151
16.5925,2523
16.5988,2053
16.6052,3094
16.6115,2356
16.6178,2029
16.6241,2140
16.6304,1693
16.6367,1232
16.643,1785
16.6493,1613
16.6556,1852
16.6619,2171
16.6683,1956
16.6746,3132
16.6809,3669
16.6872,3281
16.6935,2681
16.6998,2472
16.7061,2375
16.7124,1844
16.7187,2873
16.725,2208
16.7313,1970
16.7376,2753
16.744,1792
16.7503,3005
16.7566,2900
16.7629,2603
16.7692,3508
16.7755,2849
16.7818,2369
16.7881,3287
16.7944,2378
16.8007,1815
16.807,2029
16.8134,2571
16.8196,3109
16.826,1410
16.8323,2240
16.8386,2935
16.8449,2071
16.8512,2970
16.8575,2461
16.8638,1280
16.8701,2482
16.8764,3059
16.8827,2421
16.8891,1797
16.8954,2227
16.9017,1739
16.908,3208
16.9143,2608
16.9206,2689
16.9269,2263
16.9332,3316
16.9395,2432
16.9458,2670
16.9521,2336
16.9584,1854
16.9647,1074
16.9711,1611
16.9774,1517
16.9837,1603
16.99,2394
16.9963,1157
17.0026,2187
17.0089,2424
17.0152,2185
17.0215,2095
17.0278,2612
17.0342,1641
17.0405,1726
17.0468,2155
17.0531,1838
17.0594,2325
17.0657,1894
17.072,2771
17.0783,2768
17.0846,3483
17.0909,1995
17.0972,1938
17.1035,2442
17.1099,1815
17.1162,1764
17.1225,1473
17.1288,1877
17.1351,1576
17.1414,1364
17.1477,2223
17.154,1701
17.1603,2055
17.1666,2101
17.1729,2150
17.1793,1421
17.1855,2097
17.1919,2269
17.1982,3791
17.2045,7904
17.2108,15406
17.2171,26490
17.2234,37545
17.2297,48002
17.236,58130
17.2423,60822
17.2487,53552
17.255,36811
17.2613,24538
17.2676,14946
17.2739,8221
17.2802,4268
17.2865,3302
17.2928,3046
17.2991,2836
17.3054,3081
17.3117,2556
17.318,1980
17.3243,2532
17.3306,2959
17.337,2278
17.3433,1370
17.3496,2174
17.3559,2148
17.3622,2504
17.3685,2420
17.3748,773
17.3811,2513
17.3874,1457
17.3937,2243
17.4001,2571
17.4064,4489
17.4127,6345
17.419,7030
17.4253,9815
17.4316,12208
17.4379,13241
17.4442,11254
17.4505,10412
17.4568,6872
17.4631,4722
17.4694,3859
17.4758,4034
17.4821,2808
17.4884,3110
17.4947,2794
17.501,2440
17.5073,2123
17.5136,2306
17.5199,2474
17.5262,2695
17.5325,3109
17.5388,2766
17.5452,3487
17.5514,4156
17.5578,4204
17.5641,3099
17.5704,3675
17.5767,2734
17.583,2939
17.5893,2118
17.5956,2590
17.6019,2261
17.6082,1205
17.6146,1765
17.6209,1453
17.6272,2184
17.6335,1923
17.6398,923
17.6461,1147
17.6524,1742
17.6587,1403
17.665,1375
17.6713,1776
17.6776,1416
17.6839,2301
17.6903,2320
17.6966,1713
17.7029,704
17.7092,1754
17.7155,2308
17.7218,2096
17.7281,1447
17.7344,2440
17.7407,2184
17.747,2618
17.7533,2683
17.7597,2185
17.766,3217
17.7723,2824
17.7786,2341
17.7849,2355
17.7912,3466
17.7975,2317
17.8038,2424
17.8101,2183
17.8164,1940
17.8227,1354
17.829,1229
17.8354,1275
17.8417,1718
17.848,2008
17.8543,1922
17.8606,1774
17.8669,2232
17.8732,2269
17.8795,3374
17.8858,3881
17.8921,1847
17.8984,2134
17.9047,2298
17.911,2217
17.9174,2798
17.9237,2447
17.93,1879
17.9363,2102
17.9426,2821
17.9489,3636
17.9552,3798
17.9615,2492
17.9678,2626
17.9741,1539
17.9805,2021
17.9868,2289
17.9931,2416
17.9994,2731
18.0057,1449
18.012,1794
18.0183,2027
18.0246,2729
18.0309,2016
18.0372,1502
18.0435,2128
18.0498,2039
18.0562,1645
18.0625,1566
18.0688,1320
18.0751,2270
18.0814,2157
18.0877,2287
18.094,2033
18.1003,2401
18.1066,3750
18.1129,3513
18.1192,2984
18.1256,4148
18.1319,3141
18.1382,2681
18.1445,2983
18.1508,2147
18.1571,2563
18.1634,3055
18.1697,2094
18.176,2542
18.1823,2104
18.1886,1676
18.1949,1655
18.2013,1887
18.2076,1359
18.2139,2247
18.2202,2241
18.2265,2761
18.2328,2886
18.2391,2845
18.2454,2799
18.2517,2449
18.258,1855
18.2643,2287
18.2706,2390
18.2769,1934
18.2833,3284
18.2896,2647
18.2959,2804
18.3022,2463
18.3085,2432
18.3148,2710
18.3211,5815
18.3274,17062
18.3337,51982
18.34,155761
18.3464,431634
18.3527,1050565
18.359,2207538
18.3653,4069801
18.3716,6472338
18.3779,9364361
18.3842,12909869
18.3905,16900258
18.3968,20784180
18.4031,24553642
18.4094,29252842
18.4157,33803568
18.4221,37933404
18.4284,41525556
18.4347,46031336
18.441,49408888
18.4473,51416912
18.4536,49362188
18.4599,33511900
18.4662,10622887
18.4725,1676716
18.4788,208607
18.4851,36922
18.4915,15518
18.4978,13966
18.5041,11438
18.5104,11109
18.5167,9835
18.523,8201
18.5293,8757
18.5356,7145
18.5419,7569
18.5482,7544
18.5545,7914
18.5608,7625
18.5672,8260
18.5735,9886
18.5798,15837
18.5861,16552
18.5924,21446
18.5987,19690
18.605,19237
18.6113,16274
18.6176,12313
18.6239,8486
18.6302,8109
18.6366,5681
18.6428,5765
18.6492,4920
18.6555,6061
18.6618,5537
18.6681,3515
18.6744,4681
18.6807,4588
18.687,4100
18.6933,4040
18.6996,5455
18.7059,4614
18.7123,4600
18.7186,4251
18.7249,3229
18.7312,3656
18.7375,3796
18.7438,4135
18.7501,4861
18.7564,4944
18.7627,6024
18.769,4678
18.7753,4885
18.7816,5448
18.788,4391
18.7943,4562
18.8006,4279
18.8069,3103
18.8132,2952
18.8195,3815
18.8258,2411
18.8321,4496
18.8384,4247
18.8447,4451
18.851,3539
18.8574,5272
18.8637,5002
18.87,4862
18.8763,5653
18.8826,4524
18.8889,4415
18.8952,2593
18.9015,3768
18.9078,3106
18.9141,3283
18.9204,2435
18.9267,3051
18.9331,2588
18.9394,3865
18.9457,3455
18.952,3903
18.9583,3790
18.9646,4046
18.9709,4770
18.9772,4403
18.9835,5920
18.9898,4432
18.9961,5820
19.0025,3638
19.0087,4384
19.0151,3733
19.0214,3734
19.0277,3838
19.034,2905
19.0403,1820
19.0466,1920
19.0529,2440
19.0592,3463
19.0655,2832
19.0718,3675
19.0782,3192
19.0845,3873
19.0908,4291
19.0971,3186
19.1034,3592
19.1097,2564
19.116,2173
19.1223,2328
19.1286,2428
19.1349,2662
19.1412,2627
19.1476,3400
19.1539,2272
19.1602,2755
19.1665,4296
19.1728,6730
19.1791,9180
19.1854,16253
19.1917,20888
19.198,24103
19.2043,26306
19.2106,23980
19.2169,18321
19.2233,12352
19.2296,9726
19.2359,5810
19.2422,4478
19.2485,4224
19.2548,3664
19.2611,3964
19.2674,2690
19.2737,3249
19.28,2853
19.2863,2828
19.2926,3683
19.299,3323
19.3053,3126
19.3116,2454
19.3179,2835
19.3242,3641
19.3305,3180
19.3368,2688
19.3431,2454
19.3494,2277
19.3557,3443
19.362,3517
19.3684,2803
19.3747,2522
19.381,3009
19.3873,2200
19.3936,2729
19.3999,3026
19.4062,4033
19.4125,3449
19.4188,3594
19.4251,3751
19.4314,3283
19.4377,3033
19.4441,2844
19.4504,3074
19.4567,2647
19.463,2836
19.4693,3127
19.4756,3239
19.4819,3398
19.4882,3197
19.4945,2418
19.5008,2313
19.5071,3245
19.5135,3486
19.5198,4230
19.5261,3268
19.5324,2556
19.5387,2839
19.545,2781
19.5513,1780
19.5576,2849
19.5639,2269
19.5702,2996
19.5765,3128
19.5828,3391
19.5892,4396
19.5955,7049
19.6018,7236
19.6081,7101
19.6144,8391
19.6207,7308
19.627,6463
19.6333,4798
19.6396,3983
19.6459,2858
19.6522,2436
19.6586,3106
19.6649,4023
19.6712,3287
19.6775,4279
19.6838,3837
19.6901,4660
19.6964,5486
19.7027,3276
19.709,4194
19.7153,3063
19.7216,3055
19.7279,2230
19.7342,3404
19.7406,2426
19.7469,2721
19.7532,2130
19.7595,2890
19.7658,3644
19.7721,3722
19.7784,2963
19.7847,3333
19.791,4059
19.7973,4349
19.8036,4090
19.81,4519
19.8163,5115
19.8226,5230
19.8289,5334
19.8352,7459
19.8415,10543
19.8478,10699
19.8541,10264
19.8604,8609
19.8667,6535
19.873,4879
19.8794,4365
19.8857,2568
19.892,3535
19.8983,3270
19.9046,2628
19.9109,2144
19.9172,2199
19.9235,3209
19.9298,3565
19.9361,5177
19.9424,7357
19.9487,8540
19.9551,8120
19.9613,9937
19.9677,9156
19.974,8426
19.9803,6760
19.9866,6155
19.9929,7161
19.9992,7188
20.0055,11227
20.0118,9978
20.0181,10428
20.0245,10672
20.0308,10443
20.0371,8396
20.0434,5933
20.0497,5940
20.056,3612
20.0623,5090
20.0686,4691
20.0749,5493
20.0812,4253
20.0875,3764
20.0938,4672
20.1001,3222
20.1065,3953
20.1128,3142
20.1191,3703
20.1254,3818
20.1317,6291
20.138,5373
20.1443,7858
20.1506,7959
20.1569,13334
20.1632,12677
20.1695,17232
20.1759,18652
20.1822,14521
20.1885,11614
20.1948,9810
20.2011,5398
20.2074,5670
20.2137,4931
20.22,4341
20.2263,4540
20.2326,3734
20.2389,4536
20.2453,5576
20.2516,6562
20.2579,5644
20.2642,6562
20.2705,7670
20.2768,9378
20.2831,9987
20.2894,8384
20.2957,10316
20.302,10945
20.3083,13408
20.3146,17771
20.321,17714
20.3272,26164
20.3336,33844
20.3399,36916
20.3462,40008
20.3525,31181
20.3588,26912
20.3651,17582
20.3714,11224
20.3777,9264
20.384,5921
20.3904,4918
20.3967,2947
20.403,3991
20.4093,4346
20.4156,3880
20.4219,4625
20.4282,3658
20.4345,4985
20.4408,4008
20.4471,5143
20.4534,5829
20.4597,5343
20.4661,6106
20.4724,7720
20.4787,5932
20.485,6050
20.4913,8886
20.4976,9601
20.5039,11387
20.5102,16929
20.5165,21961
20.5228,28348
20.5291,30098
20.5355,32215
20.5418,30759
20.5481,30675
20.5544,32300
20.5607,35856
20.567,38714
20.5733,41373
20.5796,35826
20.5859,30430
20.5922,23827
20.5985,16239
20.6048,11690
20.6112,9714
20.6175,8798
20.6238,9308
20.6301,10900
20.6364,11144
20.6427,11592
20.649,12353
20.6553,11245
20.6616,9756
20.6679,10258
20.6742,9077
20.6805,10026
20.6869,11177
20.6932,11664
20.6995,12520
20.7058,12168
20.7121,11373
20.7184,12494
20.7247,10167
20.731,9451
20.7373,9444
20.7436,9374
20.7499,9418
20.7563,8702
20.7626,8960
20.7689,7386
20.7752,7872
20.7815,7207
20.7878,6653
20.7941,5940
20.8004,5029
20.8067,5728
20.813,6363
20.8193,6508
20.8256,5344
20.832,5611
20.8383,6230
20.8446,6096
20.8509,6007
20.8572,7103
20.8635,5955
20.8698,5784
20.8761,6169
20.8824,6066
20.8887,8231
20.895,7961
20.9014,8529
20.9077,6499
20.914,7093
20.9203,7632
20.9266,6349
20.9329,6728
20.9392,5611
20.9455,4863
20.9518,5238
20.9581,6094
20.9644,6611
20.9707,6622
20.9771,7521
20.9834,9636
20.9897,8675
20.996,6420
21.0023,7198
21.0086,5854
21.0149,6691
21.0212,5313
21.0275,7063
21.0338,6943
21.0401,8351
21.0465,7910
21.0528,8463
21.0591,11519
21.0654,11741
21.0717,13742
21.078,14006
21.0843,16266
21.0906,15297
21.0969,12120
21.1032,12169
21.1095,10877
21.1158,11581
21.1222,11782
21.1285,11163
21.1348,12967
21.1411,10741
21.1474,13636
21.1537,12004
21.16,15597
21.1663,13962
21.1726,11492
21.1789,12596
21.1852,11453
21.1915,12279
21.1979,12000
21.2042,10804
21.2105,10440
21.2168,10073
21.2231,9896
21.2294,12395
21.2357,11913
21.242,11464
21.2483,8871
21.2546,7957
21.2609,9427
21.2673,9702
21.2736,10331
21.2799,10565
21.2862,10644
21.2925,11137
21.2988,9584
21.3051,7025
21.3114,8366
21.3177,11073
21.324,10861
21.3303,11271
21.3366,12291
21.343,9943
21.3493,11755
21.3556,12771
21.3619,20117
21.3682,41290
21.3745,114794
21.3808,309531
21.3871,771503
21.3934,1653664
21.3997,3131173
21.406,5340689
21.4124,8252248
21.4187,11969736
21.425,16209673
21.4313,20337814
21.4376,24881910
21.4439,29072382
21.4502,33034992
21.4565,36906716
21.4628,41329524
21.4691,45513480
21.4754,49265460
21.4817,53036468
21.4881,54776576
21.4944,52407252
21.5007,33338154
21.507,9150227
21.5133,1432629
21.5196,203562
21.5259,51124
21.5322,32070
21.5385,25017
21.5448,21465
21.5511,18985
21.5574,20161
21.5638,19177
21.5701,16532
21.5764,16794
21.5827,15587
21.589,15100
21.5953,15084
21.6016,14013
21.6079,14417
21.6142,14020
21.6205,13399
21.6268,12429
21.6332,13938
21.6395,13681
21.6458,21911
21.6521,26640
21.6584,37889
21.6647,44933
21.671,52350
21.6773,51669
21.6836,48156
21.6899,38975
21.6962,27665
21.7025,20411
21.7089,16611
21.7152,13734
21.7215,11623
21.7278,12150
21.7341,10256
21.7404,11288
21.7467,10553
21.753,9235
21.7593,8770
21.7656,8679
21.7719,8204
21.7783,8150
21.7845,8231
21.7909,6291
21.7972,7581
21.8035,8800
21.8098,7978
21.8161,8895
21.8224,9669
21.8287,9779
21.835,8673
21.8413,8838
21.8476,8502
21.854,7817
21.8603,9211
21.8666,13501
21.8729,19752
21.8792,26589
21.8855,31804
21.8918,35954
21.8981,35762
21.9044,28083
21.9107,23605
21.917,15923
21.9234,11003
21.9297,7839
21.936,6668
21.9423,6080
21.9486,4369
21.9549,4778
21.9612,5246
21.9675,4954
21.9738,5991
21.9801,6718
21.9864,6190
21.9927,8971
21.9991,9326
22.0054,9765
22.0117,10615
22.018,10989
22.0243,9631
22.0306,6863
22.0369,6011
22.0432,5956
22.0495,6086
22.0558,4484
22.0621,4503
22.0684,4723
22.0748,5923
22.0811,4455
22.0874,4374
22.0937,4393
22.1,5124
22.1063,4262
22.1126,3007
22.1189,3874
22.1252,5017
22.1315,3260
22.1378,3572
22.1442,4366
22.1504,3418
22.1568,3533
22.1631,3780
22.1694,2699
22.1757,4029
22.182,3911
22.1883,4352
22.1946,5727
22.2009,4748
22.2072,4286
22.2135,3595
22.2199,4452
22.2262,3860
22.2325,2925
22.2388,3392
22.2451,4220
22.2514,3516
22.2577,3911
22.264,4208
22.2703,5331
22.2766,5039
22.2829,5191
22.2893,6904
22.2956,5300
22.3019,4899
22.3082,4769
22.3145,5960
22.3208,4451
22.3271,5526
22.3334,4245
22.3397,4681
22.346,4052
22.3523,3778
22.3586,3707
22.365,5062
22.3713,7911
22.3776,6637
22.3839,7949
22.3902,7623
22.3965,8006
22.4028,5982
22.4091,5232
22.4154,4106
22.4217,2930
22.428,2733
22.4344,2507
22.4407,3107
22.447,1725
22.4533,2702
22.4596,2753
22.4659,3677
22.4722,4064
22.4785,4010
22.4848,5915
22.4911,4389
22.4974,4658
22.5037,4689
22.5101,5083
22.5164,4498
22.5227,5640
22.529,5141
22.5353,6289
22.5416,5715
22.5479,4724
22.5542,4741
22.5605,3859
22.5668,4029
22.5731,4194
22.5794,4051
22.5858,3632
22.5921,3911
22.5984,4042
22.6047,3152
22.611,4865
22.6173,3688
22.6236,3543
22.6299,2614
22.6362,2024
22.6425,2428
22.6488,3060
22.6552,2210
22.6615,1617
22.6678,2754
22.6741,2757
22.6804,3207
22.6867,3859
22.693,4166
22.6993,4516
22.7056,3881
22.7119,5678
22.7182,5540
22.7245,5344
22.7309,5413
22.7372,4099
22.7435,3979
22.7498,3362
22.7561,3805
22.7624,4173
22.7687,4581
22.775,5727
22.7813,7136
22.7876,8483
22.7939,8848
22.8003,9001
22.8066,9043
22.8129,7078
22.8192,7322
22.8255,6894
22.8318,7260
22.8381,7058
22.8444,6039
22.8507,5236
22.857,4280
22.8633,4331
22.8696,2805
22.876,3834
22.8823,3314
22.8886,3646
22.8949,3087
22.9012,3631
22.9075,3763
22.9138,3619
22.9201,4969
22.9264,4535
22.9327,5035
22.939,3669
22.9454,3474
22.9517,3376
22.958,3547
22.9643,2314
22.9706,2300
22.9769,2473
22.9832,2638
22.9895,3057
22.9958,2228
23.0021,2003
23.0084,1079
23.0147,2056
23.0211,1755
23.0274,1765
23.0337,1718
23.04,1775
23.0463,2593
23.0526,2711
23.0589,3421
23.0652,3842
23.0715,3413
23.0778,3301
23.0841,3714
23.0904,3403
23.0968,3641
23.1031,3274
23.1094,3146
23.1157,3400
23.122,2715
23.1283,2997
23.1346,3568
23.1409,3558
23.1472,2994
23.1535,2598
23.1598,3139
23.1662,2400
23.1725,2671
23.1788,1921
23.1851,2035
23.1914,1913
23.1977,2577
23.204,3682
23.2103,5335
23.2166,9566
23.2229,18968
23.2292,32467
23.2355,52057
23.2418,71328
23.2482,87736
23.2545,87786
23.2608,73601
23.2671,52181
23.2734,34967
23.2797,20208
23.286,12353
23.2923,6938
23.2986,3155
23.3049,3093
23.3113,3033
23.3176,2773
23.3239,2598
23.3302,2410
23.3365,2334
23.3428,2992
23.3491,1883
23.3554,2496
23.3617,2399
23.368,2498
23.3743,2976
23.3806,2254
23.387,2966
23.3933,4351
23.3996,7972
23.4059,10727
23.4122,20159
23.4185,28904
23.4248,41123
23.4311,50693
23.4374,51617
23.4437,49567
23.45,41540
23.4563,36154
23.4627,31404
23.469,34790
23.4753,40818
23.4816,46830
23.4879,47739
23.4942,48383
23.5005,47838
23.5068,49431
23.5131,49067
23.5194,48760
23.5257,43831
23.5321,36028
23.5384,27626
23.5447,18889
23.551,14191
23.5573,11845
23.5636,9413
23.5699,7039
23.5762,8546
23.5825,6566
23.5888,5104
23.5951,5037
23.6014,4682
23.6078,3842
23.6141,4560
23.6204,4497
23.6267,4149
23.633,2693
23.6393,3605
23.6456,3787
23.6519,3457
23.6582,2807
23.6645,2766
23.6708,3898
23.6772,3378
23.6835,3403
23.6898,3768
23.6961,3142
23.7024,3663
23.7087,3798
23.715,5700
23.7213,4402
23.7276,4656
23.7339,6336
23.7402,5899
23.7465,5729
23.7529,4034
23.7592,4571
23.7655,4484
23.7718,3339
23.7781,2807
23.7844,3103
23.7907,2700
23.797,3447
23.8033,1625
23.8096,2947
23.8159,3204
23.8223,1883
23.8286,2893
23.8349,3306
23.8412,3581
23.8475,3849
23.8538,3160
23.8601,2474
23.8664,2816
23.8727,1689
23.879,2061
23.8853,2360
23.8916,2256
23.898,3878
23.9043,3840
23.9106,6326
23.9169,11646
23.9232,13712
23.9295,20193
23.9358,20358
23.9421,25214
23.9484,23426
23.9547,19846
23.961,18923
23.9673,16319
23.9737,15040
23.98,13476
23.9863,13953
23.9926,10995
23.9989,10444
24.0052,9588
24.0115,11484
24.0178,8834
24.0241,12326
24.0304,13894
24.0367,14136
24.0431,12953
24.0494,16598
24.0557,15012
24.062,13534
24.0683,16012
24.0746,18532
24.0809,22913
24.0872,25262
24.0935,26104
24.0998,23343
24.1061,21393
24.1124,16391
24.1188,16016
24.1251,12493
24.1314,9750
24.1377,8794
24.144,8084
24.1503,6487
24.1566,5985
24.1629,4685
24.1692,5092
24.1755,4229
24.1818,4410
24.1882,4632
24.1945,4634
24.2008,5291
24.2071,11578
24.2134,29234
24.2197,82950
24.226,220610
24.2323,558451
24.2386,1304627
24.2449,2546543
24.2512,4438933
24.2575,7253757
24.2639,10764342
24.2702,14597950
24.2765,19099962
24.2828,24098738
24.2891,28959650
24.2954,33349074
24.3017,37181728
24.308,41585236
24.3143,46062556
24.3206,50477856
24.3269,54309444
24.3333,56009780
24.3396,57119276
24.3459,51316108
24.3522,27070722
24.3585,6568024
24.3648,1007145
24.3711,187652
24.3774,74044
24.3837,51721
24.39,53586
24.3963,54063
24.4026,61577
24.409,54874
24.4153,48953
24.4216,42985
24.4279,31275
24.4342,26515
24.4405,19581
24.4468,17317
24.4531,18978
24.4594,17545
24.4657,12207
24.472,15941
24.4783,15218
24.4847,12541
24.491,10250
24.4973,9554
24.5036,9668
24.5099,8778
24.5162,8757
24.5225,8843
24.5288,9281
24.5351,10711
24.5414,10754
24.5477,11667
24.5541,10933
24.5604,9913
24.5667,8608
24.573,8073
24.5793,6692
24.5856,6175
24.5919,6260
24.5982,4780
24.6045,5577
24.6108,6557
24.6171,6064
24.6234,5564
24.6298,6932
24.6361,6600
24.6424,9166
24.6487,12462
24.655,14690
24.6613,15219
24.6676,18498
24.6739,14689
24.6802,14496
24.6865,11582
24.6928,9841
24.6991,6228
24.7055,5156
24.7118,4849
24.7181,5434
24.7244,4857
24.7307,3932
24.737,4143
24.7433,5040
24.7496,3493
24.7559,3683
24.7622,3480
24.7685,3323
24.7749,3178
24.7812,2944
24.7875,2983
24.7938,2838
24.8001,2361
24.8064,3519
24.8127,2942
24.819,3777
24.8253,3713
24.8316,3970
24.8379,3220
24.8443,3175
24.8506,2665
24.8569,3065
24.8632,3261
24.8695,3271
24.8758,2820
24.8821,2949
24.8884,2663
24.8947,3326
24.901,2538
24.9073,3620
24.9136,2865
24.92,3308
24.9263,3054
24.9326,2951
24.9389,2805
24.9452,3055
24.9515,3305
24.9578,4593
24.9641,2153
24.9704,2643
24.9767,3355
24.983,3808
24.9893,4152
24.9957,3800
25.002,4545
25.0083,4252
25.0146,3165
25.0209,2983
25.0272,1985
25.0335,2503
25.0398,2498
25.0461,2506
25.0524,3158
25.0587,4822
25.0651,5718
25.0714,4960
25.0777,5292
25.084,6257
25.0903,4346
25.0966,5700
25.1029,3690
25.1092,3670
25.1155,3375
25.1218,3525
25.1281,3378
25.1344,2425
25.1408,2285
25.1471,2368
25.1534,1971
25.1597,3468
25.166,3616
25.1723,3936
25.1786,3550
25.1849,2778
25.1912,2074
25.1975,2096
25.2038,1961
25.2102,1712
25.2165,3051
25.2228,2870
25.2291,2984
25.2354,2841
25.2417,2902
25.248,2841
25.2543,1969
25.2606,2672
25.2669,2836
25.2732,3085
25.2795,2216
25.2859,2258
25.2921,2470
25.2985,2361
25.3048,3155
25.3111,2473
25.3174,2918
25.3237,3587
25.33,2603
25.3363,3511
25.3426,1963
25.3489,3072
25.3552,2870
25.3616,3080
25.3679,1784
25.3742,2421
25.3805,2558
25.3868,2473
25.3931,2289
25.3994,1521
25.4057,2012
25.412,1496
25.4183,2746
25.4246,3151
25.431,2978
25.4373,3303
25.4436,4240
25.4499,3692
25.4562,3052
25.4625,3658
25.4688,3648
25.4751,2842
25.4814,2652
25.4877,4407
25.494,3923
25.5003,5109
25.5067,7979
25.513,6597
25.5193,6701
25.5256,7008
25.5319,7228
25.5382,7918
25.5445,8875
25.5508,7133
25.5571,8162
25.5634,7636
25.5697,6456
25.5761,5819
25.5824,4997
25.5887,4887
25.595,5960
25.6013,7221
25.6076,7691
25.6139,8002
25.6202,8686
25.6265,5282
25.6328,4281
25.6391,3671
25.6454,4743
25.6518,5256
25.6581,3644
25.6644,5086
25.6707,4621
25.677,4241
25.6833,4267
25.6896,4114
25.6959,4452
25.7022,5105
25.7085,5602
25.7148,6462
25.7212,6896
25.7275,9957
25.7338,12658
25.7401,14298
25.7464,15819
25.7527,13155
25.759,11635
25.7653,10437
25.7716,12908
25.7779,20225
25.7842,23918
25.7905,31101
25.7969,34937
25.8032,32079
25.8095,25509
25.8158,18149
25.8221,12553
25.8284,9385
25.8347,8874
25.841,11003
25.8473,10890
25.8536,14945
25.8599,22085
25.8662,30908
25.8726,41223
25.8789,46951
25.8852,44915
25.8915,41191
25.8978,34476
25.9041,26182
25.9104,20960
25.9167,13554
25.923,13610
25.9293,10155
25.9356,9909
25.942,9607
25.9483,7570
25.9546,8317
25.9609,7476
25.9672,7292
25.9735,6748
25.9798,6648
25.9861,7963
25.9924,10381
25.9987,12393
26.005,19737
26.0113,26008
26.0177,36611
26.024,37784
26.0303,37381
26.0366,26287
26.0429,21245
26.0492,15587
26.0555,12527
26.0618,13855
26.0681,13899
26.0744,11924
26.0807,14908
26.0871,15331
26.0934,16028
26.0997,15201
26.106,14025
26.1123,14816
26.1186,12858
26.1249,13464
26.1312,12081
26.1375,13539
26.1438,12344
26.1501,12072
26.1564,12595
26.1628,12169
26.1691,13734
26.1754,15801
26.1817,17912
26.188,21126
26.1943,22216
26.2006,22768
26.2069,18236
26.2132,15302
26.2195,12338
26.2258,11422
26.2322,11426
26.2385,10789
26.2448,10084
26.2511,12952
26.2574,10942
26.2637,12998
26.27,12386
26.2763,10557
26.2826,11904
26.2889,11243
26.2952,10649
26.3015,10831
26.3079,10202
26.3142,10443
26.3205,11229
26.3268,12696
26.3331,13517
26.3394,16289
26.3457,18635
26.352,20982
26.3583,22849
26.3646,23546
26.3709,22736
26.3772,20753
26.3836,19121
26.3899,18319
26.3962,17754
26.4025,16818
26.4088,16933
26.4151,15644
26.4214,16627
26.4277,15385
26.434,15094
26.4403,16686
26.4466,15561
26.453,16923
26.4593,17697
26.4656,16922
26.4719,16464
26.4782,16675
26.4845,17773
26.4908,21251
26.4971,22969
26.5034,24519
26.5097,23750
26.516,27709
26.5223,26307
26.5287,26323
26.535,23140
26.5413,25500
26.5476,23451
26.5539,23217
26.5602,23748
26.5665,34358
26.5728,99386
26.5791,365457
26.5854,1235269
26.5917,3380579
26.5981,7162169
26.6044,13376330
26.6107,21066328
26.617,29334394
26.6233,38088988
26.6296,46223528
26.6359,53862540
26.6422,61793660
26.6485,68047296
26.6548,72713464
26.6611,75045000
26.6674,63948204
26.6738,22440944
26.6801,2604859
26.6864,372014
26.6927,170709
26.699,133230
26.7053,107318
26.7116,93369
26.7179,78418
26.7242,72117
26.7305,68656
26.7368,68313
26.7432,67176
26.7495,64902
26.7558,58940
26.7621,56550
26.7684,51157
26.7747,50616
26.781,48739
26.7873,45769
26.7936,46458
26.7999,46709
26.8062,44879
26.8125,46845
26.8189,44043
26.8252,41225
26.8315,37867
26.8378,35547
26.8441,31077
26.8504,31178
26.8567,30250
26.863,31890
26.8693,31591
26.8756,29334
26.8819,28666
26.8882,25889
26.8946,26556
26.9009,26027
26.9072,26994
26.9135,24572
26.9198,23553
26.9261,19902
26.9324,19544
26.9387,19472
26.945,19370
26.9513,19013
26.9576,19622
26.964,20924
26.9703,23069
26.9766,22261
26.9829,22883
26.9892,20514
26.9955,18574
27.0018,18341
27.0081,17151
27.0144,17316
27.0207,17403
27.027,18297
27.0333,19177
27.0397,18748
27.046,20508
27.0523,17972
27.0586,20966
27.0649,28495
27.0712,34889
27.0775,40307
27.0838,38455
27.0901,33428
27.0964,33763
27.1027,30876
27.1091,33928
27.1154,37104
27.1217,34386
27.128,27358
27.1343,22670
27.1406,20324
27.1469,18843
27.1532,17458
27.1595,21743
27.1658,24202
27.1721,26574
27.1784,30188
27.1848,29412
27.1911,32137
27.1974,35077
27.2037,35468
27.21,31460
27.2163,24843
27.2226,21201
27.2289,19619
27.2352,18495
27.2415,15316
27.2478,13400
27.2541,14079
27.2605,13726
27.2668,13297
27.2731,12575
27.2794,13234
27.2857,16535
27.292,13996
27.2983,12710
27.3046,13448
27.3109,12365
27.3172,13462
27.3235,16525
27.3299,15595
27.3362,16880
27.3425,19493
27.3488,16819
27.3551,20590
27.3614,19063
27.3677,21376
27.374,23516
27.3803,31508
27.3866,37544
27.3929,34172
27.3992,28556
27.4056,23148
27.4119,21234
27.4182,20422
27.4245,17594
27.4308,16444
27.4371,15037
27.4434,12914
27.4497,13493
27.456,17701
27.4623,23710
27.4686,25234
27.475,26895
27.4813,26321
27.4876,19990
27.4939,21145
27.5002,19618
27.5065,18350
27.5128,19673
27.5191,20125
27.5254,18001
27.5317,19874
27.538,19812
27.5443,16776
27.5507,14389
27.557,14218
27.5633,16931
27.5696,13152
27.5759,14808
27.5822,11001
27.5885,9270
27.5948,9796
27.6011,8706
27.6074,8538
27.6137,8239
27.6201,7054
27.6264,7542
27.6327,9865
27.639,17257
27.6453,36449
27.6516,73717
27.6579,109474
27.6642,125821
27.6705,102486
27.6768,63539
27.6831,35713
27.6894,15860
27.6958,10761
27.7021,8127
27.7084,7905
27.7147,6018
27.721,7157
27.7273,7090
27.7336,8774
27.7399,9743
27.7462,12387
27.7525,25334
27.7588,41612
27.7651,57304
27.7715,57517
27.7778,43783
27.7841,29496
27.7904,23591
27.7967,17318
27.803,14177
27.8093,16762
27.8156,18923
27.8219,16143
27.8282,16699
27.8345,14990
27.8409,18075
27.8472,17587
27.8535,16889
27.8598,13540
27.8661,11137
27.8724,8281
27.8787,8061
27.885,7488
27.8913,7824
27.8976,7174
27.9039,5977
27.9102,5688
27.9166,5729
27.9229,6969
27.9292,7246
27.9355,5653
27.9418,5789
27.9481,5287
27.9544,5322
27.9607,4910
27.967,5287
27.9733,6032
27.9796,6266
27.986,5097
27.9923,5453
27.9986,4514
28.0049,5074
28.0112,5794
28.0175,5833
28.0238,6365
28.0301,6146
28.0364,6417
28.0427,9809
28.049,15872
28.0553,22097
28.0617,29074
28.068,29672
28.0743,25798
28.0806,21776
28.0869,18636
28.0932,18281
28.0995,16341
28.1058,14888
28.1121,11467
28.1184,9853
28.1247,11931
28.1311,13421
28.1374,14769
28.1437,15427
28.15,27927
28.1563,98444
28.1626,510519
28.1689,2027373
28.1752,5982788
28.1815,13387513
28.1878,24078182
28.1941,37238148
28.2004,51620092
28.2068,62670332
28.2131,71969360
28.2194,80889816
28.2257,85878280
28.232,85032264
28.2383,49482296
28.2446,7930384
28.2509,1002951
28.2572,363161
28.2635,240382
28.2698,188093
28.2761,147183
28.2825,116093
28.2888,97310
28.2951,84981
28.3014,70890
28.3077,60552
28.314,58932
28.3203,51533
28.3266,46382
28.3329,40493
28.3392,38652
28.3455,37167
28.3519,35027
28.3582,31961
28.3645,29301
28.3708,27464
28.3771,31574
28.3834,29427
28.3897,27576
28.396,28148
28.4023,25136
28.4086,22420
28.4149,22576
28.4212,20835
28.4276,18433
28.4339,20483
28.4402,20387
28.4465,21353
28.4528,22208
28.4591,19722
28.4654,19590
28.4717,19212
28.478,17642
28.4843,14398
28.4906,17434
28.497,23555
28.5033,27401
28.5096,28245
28.5159,20986
28.5222,14479
28.5285,12413
28.5348,13345
28.5411,10900
28.5474,9580
28.5537,10458
28.56,10778
28.5663,9908
28.5727,9431
28.579,9779
28.5853,9740
28.5916,10003
28.5979,9091
28.6042,9938
28.6105,11884
28.6168,19086
28.6231,23201
28.6294,26641
28.6357,23741
28.6421,17815
28.6484,17122
28.6547,14890
28.661,12690
28.6673,9164
28.6736,9054
28.6799,7806
28.6862,8773
28.6925,8081
28.6988,5534
28.7051,6723
28.7114,7234
28.7178,6840
28.7241,10691
28.7304,11522
28.7367,12772
28.743,12297
28.7493,17758
28.7556,17259
28.7619,16602
28.7682,13542
28.7745,11181
28.7808,10213
28.7871,9316
28.7935,7764
28.7998,8317
28.8061,8453
28.8124,6247
28.8187,7293
28.825,8475
28.8313,7842
28.8376,8159
28.8439,7524
28.8502,8038
28.8565,7562
28.8629,6381
28.8692,5306
28.8755,5492
28.8818,5810
28.8881,6071
28.8944,7027
28.9007,7541
28.907,8459
28.9133,11769
28.9196,14240
28.9259,17199
28.9322,21655
28.9386,19401
28.9449,19788
28.9512,21160
28.9575,17001
28.9638,15492
28.9701,11993
28.9764,14593
28.9827,19612
28.989,21530
28.9953,24063
29.0016,24240
29.008,21304
29.0143,18720
29.0206,11779
29.0269,9551
29.0332,6357
29.0395,6821
29.0458,6006
29.0521,9092
29.0584,10452
29.0647,11382
29.071,11210
29.0773,10981
29.0837,11560
29.09,12132
29.0963,14458
29.1026,17750
29.1089,16181
29.1152,14103
29.1215,12148
29.1278,11322
29.1341,9696
29.1404,10107
29.1467,12053
29.153,13243
29.1594,16007
29.1657,16413
29.172,14914
29.1783,11997
29.1846,14921
29.1909,16597
29.1972,22285
29.2035,26009
29.2098,24652
29.2161,25621
29.2224,21378
29.2288,23057
29.2351,22917
29.2414,19685
29.2477,14671
29.254,9567
29.2603,9379
29.2666,10548
29.2729,9678
29.2792,12007
29.2855,11544
29.2918,13986
29.2981,12491
29.3045,12041
29.3108,10305
29.3171,12513
29.3234,15418
29.3297,18397
29.336,19879
29.3423,22606
29.3486,19982
29.3549,23335
29.3612,19278
29.3675,16637
29.3739,22313
29.3802,65583
29.3865,369742
29.3928,1830167
29.3991,6480961
29.4054,15879542
29.4117,29563698
29.418,45830052
29.4243,61396572
29.4306,74540536
29.4369,85587400
29.4432,93497552
29.4496,93041960
29.4559,63382252
29.4622,13134901
29.4685,1879184
29.4748,748786
29.4811,475916
29.4874,343033
29.4937,264966
29.5,219358
29.5063,178583
29.5126,157061
29.519,137424
29.5253,121659
29.5316,111600
29.5379,102851
29.5442,93184
29.5505,84060
29.5568,74152
29.5631,68708
29.5694,59141
29.5757,58408
29.582,60421
29.5883,71291
29.5947,83050
29.601,86536
29.6073,70139
29.6136,54908
29.6199,43613
29.6262,40232
29.6325,43944
29.6388,41830
29.6451,46916
29.6514,47283
29.6577,38465
29.664,34948
29.6704,34833
29.6767,31742
29.683,38639
29.6893,35799
29.6956,32211
29.7019,38293
29.7082,42371
29.7145,46745
29.7208,48945
29.7271,39854
29.7334,31104
29.7398,23979
29.7461,20440
29.7524,22019
29.7587,27748
29.765,32836
29.7713,37763
29.7776,38916
29.7839,31672
29.7902,26684
29.7965,21117
29.8028,18721
29.8091,19503
29.8155,16731
29.8218,17535
29.8281,19197
29.8344,21032
29.8407,22696
29.847,30657
29.8533,43261
29.8596,53509
29.8659,66193
29.8722,73907
29.8785,63747
29.8849,46650
29.8912,27867
29.8975,19485
29.9038,21208
29.9101,20528
29.9164,20732
29.9227,32788
29.929,58426
29.9353,99593
29.9416,117283
29.9479,90452
29.9542,57642
29.9606,33120
29.9669,26042
29.9732,21770
29.9795,19822
29.9858,18200
29.9921,20176
29.9984,18485
30.0047,18455
30.011,16588
30.0173,17790
30.0236,15642
30.03,14982
30.0363,15066
30.0426,16584
30.0489,19131
30.0552,22420
30.0615,23988
30.0678,24671
30.0741,24281
30.0804,29376
30.0867,29014
30.093,27761
30.0993,23802
30.1057,19496
30.112,18435
30.1183,22135
30.1246,47176
30.1309,189566
30.1372,628892
30.1435,1281533
30.1498,1566867
30.1561,1177758
30.1624,631949
30.1687,266098
30.175,109853
30.1814,60173
30.1877,41933
30.194,34492
30.2003,31405
30.2066,28387
30.2129,28023
30.2192,25890
30.2255,24125
30.2318,25797
30.2381,23136
30.2444,23845
30.2508,21176
30.2571,23349
30.2634,24325
30.2697,22349
30.276,24609
30.2823,21650
30.2886,19940
30.2949,20511
30.3012,24261
30.3075,26115
30.3138,26561
30.3201,27757
30.3265,24812
30.3328,23511
30.3391,21904
30.3454,23682
30.3517,28927
30.358,39186
30.3643,49383
30.3706,61211
30.3769,54023
30.3832,43831
30.3895,33605
30.3959,46787
30.4022,231049
30.4085,1402106
30.4148,6198674
30.4211,17093042
30.4274,32961508
30.4337,52046060
30.44,72885040
30.4463,86711136
30.4526,95024960
30.4589,97801840
30.4652,86844088
30.4716,31377650
30.4779,4950752
30.4842,1425036
30.4905,846711
30.4968,626548
30.5031,502570
30.5094,407160
30.5157,335251
30.522,279115
30.5283,245644
30.5346,217268
30.5409,197476
30.5473,177201
30.5536,163165
30.5599,147029
30.5662,139941
30.5725,127184
30.5788,118990
30.5851,112007
30.5914,107202
30.5977,104515
30.604,97546
30.6103,93693
30.6167,87998
30.623,82429
30.6293,78541
30.6356,72952
30.6419,71066
30.6482,66419
30.6545,67748
30.6608,64358
30.6671,59930
30.6734,58651
30.6797,59863
30.686,60059
30.6924,57755
30.6987,54495
30.705,53108
30.7113,47325
30.7176,51085
30.7239,50038
30.7302,46906
30.7365,45251
30.7428,43861
30.7491,44100
30.7554,42996
30.7618,42859
30.7681,40005
30.7744,39882
30.7807,40793
30.787,42956
30.7933,45063
30.7996,44675
30.8059,36864
30.8122,38027
30.8185,35725
30.8248,36304
30.8311,36187
30.8375,32466
30.8438,36625
30.8501,33976
30.8564,32546
30.8627,30675
30.869,31148
30.8753,30113
30.8816,29765
30.8879,28382
30.8942,29521
30.9005,27586
30.9069,28352
30.9132,33041
30.9195,30842
30.9258,32244
30.9321,33165
30.9384,34616
30.9447,29194
30.951,29071
30.9573,30020
30.9636,28450
30.9699,27974
30.9762,25396
30.9826,26247
30.9889,31213
30.9952,30876
31.0015,31147
31.0078,31479
31.0141,39568
31.0204,50401
31.0267,74713
31.033,90100
31.0393,85003
31.0456,73630
31.0519,87750
31.0583,104421
31.0646,104510
31.0709,83940
31.0772,53474
31.0835,40682
31.0898,41869
31.0961,62143
31.1024,84879
31.1087,107321
31.115,120002
31.1213,112069
31.1277,101825
31.134,74335
31.1403,55842
31.1466,56708
31.1529,75978
31.1592,106606
31.1655,113245
31.1718,102493
31.1781,77124
31.1844,53157
31.1907,40861
31.197,38123
31.2034,38532
31.2097,42356
31.216,44286
31.2223,50121
31.2286,51802
31.2349,60635
31.2412,62087
31.2475,67923
31.2538,61314
31.2601,53491
31.2664,44815
31.2728,45135
31.2791,54114
31.2854,192189
31.2917,1154195
31.298,5111008
31.3043,15828250
31.3106,35029584
31.3169,55663940
31.3232,76145112
31.3295,89405072
31.3358,97341984
31.3421,102219792
31.3485,87489824
31.3548,29816912
31.3611,5819423
31.3674,2005741
31.3737,1227021
31.38,876569
31.3863,697836
31.3926,571503
31.3989,489494
31.4052,424741
31.4115,379979
31.4179,337618
31.4242,304852
31.4305,285724
31.4368,265114
31.4431,269477
31.4494,257174
31.4557,244299
31.462,224322
31.4683,208004
31.4746,195237
31.4809,182266
31.4872,165978
31.4936,158424
31.4999,148567
31.5062,149625
31.5125,146839
31.5188,140337
31.5251,128227
31.5314,120638
31.5377,114635
31.544,111712
31.5503,103762
31.5566,105083
31.5629,110957
31.5693,116465
31.5756,117178
31.5819,106962
31.5882,99620
31.5945,93995
31.6008,89921
31.6071,93019
31.6134,109422
31.6197,144834
31.626,221953
31.6323,284268
31.6387,293006
31.645,262596
31.6513,248875
31.6576,251480
31.6639,230936
31.6702,179641
31.6765,130425
31.6828,106208
31.6891,86499
31.6954,92207
31.7017,116014
31.708,164796
31.7144,209626
31.7207,215381
31.727,176454
31.7333,125929
31.7396,106448
31.7459,97905
31.7522,100393
31.7585,100187
31.7648,100077
31.7711,92265
31.7774,79671
31.7838,73355
31.7901,69553
31.7964,65002
31.8027,65400
31.809,66257
31.8153,63297
31.8216,65922
31.8279,67620
31.8342,95348
31.8405,121912
31.8468,144718
31.8531,129174
31.8595,102860
31.8658,90261
31.8721,103025
31.8784,192355
31.8847,396274
31.891,619381
31.8973,659256
31.9036,496710
31.9099,302950
31.9162,204922
31.9225,169616
31.9289,182084
31.9352,182141
31.9415,171211
31.9478,150407
31.9541,132624
31.9604,126511
31.9667,125567
31.973,125076
31.9793,119713
31.9856,107867
31.9919,103145
31.9982,92775
32.0046,93808
32.0108,85100
32.0172,77459
32.0235,83883
32.0298,82286
32.0361,81159
32.0424,79783
32.0487,79075
32.055,71934
32.0613,69195
32.0676,68923
32.0739,70297
32.0802,77348
32.0866,83781
32.0929,116033
32.0992,301844
32.1055,1365266
32.1118,5354617
32.1181,14643749
32.1244,29991958
32.1307,49907848
32.137,69573184
32.1433,87109976
32.1497,97893888
32.1559,102648880
32.1623,95813752
32.1686,51630224
32.1749,13145091
32.1812,3993706
32.1875,2093887
32.1938,1455063
32.2001,1136578
32.2064,927785
32.2127,770682
32.219,662927
32.2253,571909
32.2317,514524
32.238,452546
32.2443,422042
32.2506,382390
32.2569,349293
32.2632,330928
32.2695,301484
32.2758,279739
32.2821,265900
32.2884,252056
32.2948,234726
32.301,227090
32.3074,218693
32.3137,201721
32.32,193694
32.3263,185795
32.3326,183216
32.3389,181181
32.3452,165661
32.3515,161073
32.3578,155748
32.3641,149963
32.3704,148023
32.3768,137626
32.3831,139800
32.3894,132818
32.3957,130881
32.402,127023
32.4083,120122
32.4146,119838
32.4209,116541
32.4272,112841
32.4335,113961
32.4398,110895
32.4462,107443
32.4525,108650
32.4588,104887
32.4651,103806
32.4714,98661
32.4777,100811
32.484,98127
32.4903,93325
32.4966,96628
32.5029,94285
32.5092,91551
32.5155,89901
32.5219,88147
32.5282,90973
32.5345,87461
32.5408,81961
32.5471,84770
32.5534,81874
32.5597,80511
32.566,79981
32.5723,82010
32.5786,83433
32.5849,97064
32.5913,109701
32.5975,116172
32.6039,129855
32.6102,129100
32.6165,120989
32.6228,118899
32.6291,110935
32.6354,102014
32.6417,94241
32.648,93260
32.6543,97270
32.6606,103911
32.667,102345
32.6733,99909
32.6796,91800
32.6859,87027
32.6922,98438
32.6985,107889
32.7048,118356
32.7111,124385
32.7174,114488
32.7237,108138
32.73,105350
32.7364,104094
32.7426,96013
32.749,99403
32.7553,97902
32.7616,88424
32.7679,80555
32.7742,85556
32.7805,84206
32.7868,90398
32.7931,88808
32.7994,88586
32.8058,82756
32.812,77584
32.8184,75741
32.8247,74978
32.831,73205
32.8373,73518
32.8436,74464
32.8499,76064
32.8562,78676
32.8625,76675
32.8688,74695
32.8751,77278
32.8815,76347
32.8877,75526
32.8941,74843
32.9004,74317
32.9067,71083
32.913,73210
32.9193,69715
32.9256,70709
32.9319,68137
32.9382,68211
32.9445,71294
32.9508,96972
32.9571,238409
32.9635,893837
32.9698,3045295
32.9761,8562795
32.9824,18821790
32.9887,34014472
32.995,50703892
33.0013,67819568
33.0076,81270376
33.0139,92015072
33.0202,97097800
33.0266,93192528
33.0329,60833460
33.0392,21372574
33.0455,7040346
33.0518,3359738
33.0581,2177741
33.0644,1655890
33.0707,1318333
33.077,1093866
33.0833,949765
33.0896,821411
33.0959,729477
33.1022,671764
33.1086,599805
33.1149,557925
33.1212,500389
33.1275,460103
33.1338,435202
33.1401,392652
33.1464,362062
33.1527,352539
33.159,329611
33.1653,311416
33.1717,297818
33.178,283750
33.1843,277155
33.1906,255718
33.1969,246597
33.2032,239888
33.2095,225087
33.2158,219700
33.2221,211921
33.2284,210349
33.2347,198170
33.241,193565
33.2473,184796
33.2537,175827
33.26,173283
33.2663,178139
33.2726,164952
33.2789,163093
33.2852,160341
33.2915,158520
33.2978,147885
33.3041,146499
33.3104,145905
33.3167,142186
33.3231,137688
33.3294,139614
33.3357,131998
33.342,132648
33.3483,130957
33.3546,125983
33.3609,127697
33.3672,127966
33.3735,120192
33.3798,120948
33.3861,114495
33.3924,115643
33.3988,111105
33.4051,113004
33.4114,112537
33.4177,104040
33.424,104785
33.4303,107495
33.4366,102793
33.4429,101710
33.4492,102111
33.4555,98541
33.4618,99356
33.4682,97368
33.4744,94863
33.4808,94727
33.4871,95248
33.4934,93798
33.4997,94184
33.506,92169
33.5123,94438
33.5186,91213
33.5249,90226
33.5312,92178
33.5376,91035
33.5438,88510
33.5502,89787
33.5565,83798
33.5628,81755
33.5691,81312
33.5754,81499
33.5817,82329
33.588,83358
33.5943,78490
33.6006,83405
33.6069,84679
33.6133,82699
33.6195,80469
33.6259,81973
33.6322,78276
33.6385,81322
33.6448,76327
33.6511,82660
33.6574,95554
33.6637,115325
33.67,131869
33.6763,144351
33.6827,143181
33.6889,130056
33.6953,115791
33.7016,101043
33.7079,93670
33.7142,91569
33.7205,87477
33.7268,86440
33.7331,85328
33.7394,82766
33.7457,86001
33.752,79732
33.7584,79878
33.7647,80204
33.771,79261
33.7773,76008
33.7836,72908
33.7899,76244
33.7962,70156
33.8025,73672
33.8088,72109
33.8151,72597
33.8214,72610
33.8278,70083
33.834,73948
33.8404,72051
33.8467,70904
33.853,69838
33.8593,69611
33.8656,70020
33.8719,67613
33.8782,68246
33.8845,68787
33.8908,69710
33.8971,64820
33.9034,67636
33.9098,75139
33.9161,90330
33.9224,177730
33.9287,495581
33.935,1511740
33.9413,4240180
33.9476,9510650
33.9539,17045570
33.9602,27459324
33.9665,39184420
33.9728,51528508
33.9791,65640072
33.9855,75668216
33.9918,83835432
33.9981,89236992
34.0044,84417728
34.0107,60276856
34.017,25930996
34.0233,9774619
34.0296,4757240
34.0359,3039200
34.0422,2240075
34.0485,1829066
34.0549,1508279
34.0612,1284744
34.0675,1121633
34.0738,989734
34.0801,888942
34.0864,800297
34.0927,733916
34.099,680636
34.1053,627676
34.1116,574593
34.1179,534037
34.1243,508776
34.1305,471996
34.1369,445043
34.1432,424921
34.1495,401992
34.1558,390237
34.1621,368726
34.1684,349416
34.1747,326854
34.181,323498
34.1873,310930
34.1936,295649
34.2,283335
34.2063,278784
34.2126,268516
34.2189,258693
34.2252,248164
34.2315,243891
34.2378,234850
34.2441,229594
34.2504,224082
34.2567,215890
34.263,213387
34.2694,208861
34.2756,198778
34.282,190271
34.2883,188847
34.2946,186334
34.3009,184463
34.3072,178574
34.3135,175759
34.3198,173301
34.3261,165656
34.3324,171787
34.3387,163587
34.3451,160449
34.3514,157253
34.3577,156645
34.364,150716
34.3703,151542
34.3766,145291
34.3829,143564
34.3892,136769
34.3955,138640
34.4018,138252
34.4081,139326
34.4145,128553
34.4207,131597
34.4271,128382
34.4334,135144
34.4397,132600
34.446,132272
34.4523,132529
34.4586,136239
34.4649,135814
34.4712,137229
34.4775,143961
34.4838,139348
34.4902,139139
34.4965,139034
34.5028,133682
34.5091,131892
34.5154,127661
34.5217,121433
34.528,124756
34.5343,125925
34.5406,124256
34.5469,121555
34.5532,118774
34.5596,109808
34.5658,110837
34.5722,104500
34.5785,101215
34.5848,100879
34.5911,101776
34.5974,99575
34.6037,107168
34.61,110727
34.6163,104329
34.6226,109113
34.6289,103707
34.6352,106009
34.6416,103846
34.6479,105747
34.6542,107761
34.6605,105624
34.6668,102424
34.6731,99793
34.6794,95013
34.6857,92614
34.692,91698
34.6983,92776
34.7047,86590
34.7109,86098
34.7173,87730
34.7236,88355
34.7299,87995
34.7362,89337
34.7425,86041
34.7488,81139
34.7551,83325
34.7614,84157
34.7677,78842
34.774,79549
34.7803,80732
34.7867,78752
34.793,81512
34.7993,80433
34.8056,82621
34.8119,80075
34.8182,82492
34.8245,79824
34.8308,79462
34.8371,76826
34.8434,79898
34.8497,77259
34.8561,80433
34.8623,81468
34.8687,74928
34.875,76414
34.8813,74266
34.8876,76817
34.8939,77295
34.9002,75717
34.9065,75160
34.9128,74825
34.9191,73932
34.9254,76663
34.9318,76502
34.9381,74098
34.9444,73548
34.9507,69052
34.957,70195
34.9633,72735
34.9696,68961
34.9759,63625
34.9822,67509
34.9885,67031
34.9948,69200
35.0012,64380
35.0074,64238
35.0138,66807
35.0201,68706
35.0264,63890
35.0327,64258
35.039,61823
35.0453,68884
35.0516,71586
35.0579,77701
35.0642,110197
35.0706,204348
35.0769,463232
35.0832,1129630
35.0895,2591496
35.0958,5323717
35.1021,9612734
35.1084,15221660
35.1147,22094382
35.121,30102704
35.1273,38744552
35.1336,46660800
35.1399,54866708
35.1463,62396776
35.1526,70277944
35.1589,76707456
35.1652,78387448
35.1715,70253160
35.1778,42827060
35.1841,18576224
35.1904,8627755
35.1967,5006709
35.203,3453654
35.2093,2647485
35.2157,2140623
35.222,1821235
35.2283,1556491
35.2346,1381835
35.2409,1207341
35.2472,1105602
35.2535,986969
35.2598,925927
35.2661,837957
35.2724,781041
35.2787,715037
35.285,668530
35.2914,630167
35.2977,596337
35.304,554660
35.3103,527534
35.3166,499135
35.3229,484279
35.3292,456373
35.3355,438160
35.3418,425021
35.3481,398883
35.3544,382857
35.3607,375120
35.367,355278
35.3734,347429
35.3797,332607
35.386,321027
35.3923,315199
35.3986,296727
35.4049,294521
35.4112,290016
35.4175,280618
35.4238,267042
35.4301,254629
35.4365,250600
35.4428,246716
35.4491,240993
35.4554,232331
35.4617,225695
35.468,221812
35.4743,222008
35.4806,213620
35.4869,217212
35.4932,203422
35.4995,201852
35.5058,192755
35.5121,192933
35.5185,185959
35.5248,189031
35.5311,184707
35.5374,178722
35.5437,180427
35.55,180075
35.5563,175745
35.5626,177409
35.5689,172219
35.5752,175764
35.5816,169458
35.5879,168621
35.5942,167865
35.6005,163929
35.6068,162313
35.6131,153082
35.6194,154293
35.6257,148675
35.632,147645
35.6383,150453
35.6446,140291
35.6509,142089
35.6573,141993
35.6636,135635
35.6699,139609
35.6762,133654
35.6825,131208
35.6888,131316
35.6951,125745
35.7014,128901
35.7077,121886
35.714,120690
35.7203,124129
35.7266,118953
35.733,120056
35.7393,119759
35.7456,116091
35.7519,115745
35.7582,122108
35.7645,115077
35.7708,115998
35.7771,112870
35.7834,114403
35.7897,115090
35.796,114330
35.8024,109864
35.8087,111258
35.815,105394
35.8213,103849
35.8276,106027
35.8339,101309
35.8402,100946
35.8465,101723
35.8528,97765
35.8591,97137
35.8654,99252
35.8717,95957
35.8781,98572
35.8844,98051
35.8907,99310
35.897,97491
35.9033,93695
35.9096,90730
35.9159,100336
35.9222,94983
35.9285,92659
35.9348,94464
35.9411,95051
35.9475,89409
35.9537,93544
35.9601,91648
35.9664,92301
35.9727,91223
35.979,88769
35.9853,85471
35.9916,85535
35.9979,88360
36.0042,86207
36.0105,84463
36.0168,82303
36.0232,86013
36.0295,80342
36.0358,81820
36.0421,79784
36.0484,83102
36.0547,86108
36.061,82971
36.0673,82371
36.0736,81660
36.0799,83686
36.0862,85850
36.0926,89522
36.0988,92243
36.1052,87974
36.1115,94339
36.1178,91239
36.1241,93535
36.1304,91591
36.1367,88447
36.143,82912
36.1493,84887
36.1556,81626
36.1619,83585
36.1683,81435
36.1746,81165
36.1809,84052
36.1872,83008
36.1935,82853
36.1998,83208
36.2061,88973
36.2124,90579
36.2187,93424
36.225,92555
36.2313,92497
36.2376,92804
36.244,91951
36.2503,90498
36.2566,91730
36.2629,88964
36.2692,92273
36.2755,86395
36.2818,87606
36.2881,87609
36.2944,88709
36.3007,83740
36.307,81195
36.3134,83243
36.3197,79604
36.326,80436
36.3323,81921
36.3386,78740
36.3449,81647
36.3512,79977
36.3575,80906
36.3638,79011
36.3701,81754
36.3764,76486
36.3827,77866
36.3891,75953
36.3954,78060
36.4017,74501
36.408,71669
36.4143,76330
36.4206,71334
36.4269,73170
36.4332,73655
36.4395,68496
36.4458,70649
36.4521,71553
36.4584,72599
36.4648,77011
36.4711,83214
36.4774,107360
36.4837,165555
36.49,283585
36.4963,532961
36.5026,1032907
36.5089,1938156
36.5152,3421857
36.5215,5650699
36.5278,8709299
36.5342,12431850
36.5405,16593786
36.5468,21532850
36.5531,26744728
36.5594,33031978
36.5657,39129608
36.572,46006532
36.5783,50673388
36.5846,55920696
36.5909,61063756
36.5972,65426832
36.6035,65187936
36.6099,55296836
36.6162,35526136
36.6225,18073582
36.6288,9530270
36.6351,5881778
36.6414,4151821
36.6477,3215574
36.654,2649587
36.6603,2235599
36.6666,1921716
36.6729,1702466
36.6793,1510187
36.6855,1369683
36.6919,1250607
36.6982,1146020
36.7045,1053839
36.7108,973501
36.7171,899122
36.7234,846505
36.7297,805031
36.736,755182
36.7423,718404
36.7486,680854
36.755,634552
36.7613,593836
36.7676,581363
36.7739,561421
36.7802,540019
36.7865,521644
36.7928,498447
36.7991,485793
36.8054,469005
36.8117,444404
36.818,437091
36.8244,427102
36.8306,404890
36.837,392549
36.8433,382036
36.8496,372855
36.8559,358395
36.8622,344191
36.8685,336052
36.8748,326375
36.8811,317437
36.8874,306504
36.8937,296253
36.9001,296469
36.9064,285818
36.9127,274806
36.919,278208
36.9253,264478
36.9316,269834
36.9379,254333
36.9442,249475
36.9505,244977
36.9568,241131
36.9631,242399
36.9695,227092
36.9758,225761
36.9821,223058
36.9884,218374
36.9947,214560
37.001,206454
37.0073,209776
37.0136,201929
37.0199,198058
37.0262,194190
37.0325,192729
37.0388,188649
37.0452,190335
37.0515,192692
37.0578,185271
37.0641,184597
37.0704,181333
37.0767,177897
37.083,173025
37.0893,172032
37.0956,171522
37.1019,172611
37.1082,164772
37.1146,157759
37.1209,163514
37.1272,157611
37.1335,154837
37.1398,152570
37.1461,152276
37.1524,153677
37.1587,150867
37.165,149795
37.1713,144978
37.1776,147972
37.1839,139522
37.1902,138569
37.1966,134498
37.2029,136284
37.2092,135972
37.2155,139961
37.2218,135726
37.2281,128001
37.2344,132435
37.2407,132459
37.247,129734
37.2533,127646
37.2596,125745
37.266,126197
37.2723,120370
37.2786,124365
37.2849,123183
37.2912,119060
37.2975,122748
37.3038,124051
37.3101,121140
37.3164,121149
37.3227,112256
37.329,119826
37.3353,111345
37.3417,111527
37.348,111878
37.3543,109108
37.3606,107423
37.3669,111616
37.3732,110668
37.3795,103692
37.3858,107271
37.3921,104389
37.3984,105466
37.4047,104057
37.4111,103397
37.4173,104512
37.4237,99910
37.43,101636
37.4363,103673
37.4426,97853
37.4489,97177
37.4552,97147
37.4615,99684
37.4678,98375
37.4741,100648
37.4805,95134
37.4868,98917
37.4931,96067
37.4994,95648
37.5057,95191
37.512,94531
37.5183,94621
37.5246,94177
37.5309,95836
37.5372,93252
37.5435,95561
37.5498,88748
37.5562,90748
37.5624,92594
37.5688,93167
37.5751,91667
37.5814,96272
37.5877,87915
37.594,92302
37.6003,96955
37.6066,94371
37.6129,94795
37.6192,91393
37.6255,94172
37.6319,92135
37.6382,91242
37.6445,94218
37.6508,92968
37.6571,89864
37.6634,89228
37.6697,85310
37.676,90292
37.6823,83260
37.6886,83844
37.6949,83517
37.7013,84184
37.7076,84296
37.7139,81276
37.7202,78875
37.7265,79657
37.7328,79702
37.7391,83791
37.7454,84044
37.7517,80741
37.758,79163
37.7643,79301
37.7706,79038
37.7769,84196
37.7833,83111
37.7896,80867
37.7959,83398
37.8022,79904
37.8085,80821
37.8148,78519
37.8211,81976
37.8274,80616
37.8337,83297
37.84,78046
37.8464,76079
37.8527,76010
37.859,75991
37.8653,78597
37.8716,72259
37.8779,76443
37.8842,75878
37.8905,75939
37.8968,71627
37.9031,72539
37.9094,77228
37.9157,75269
37.922,76798
37.9284,75676
37.9347,74817
37.941,78273
37.9473,75772
37.9536,74295
37.9599,76723
37.9662,71069
37.9725,73165
37.9788,70615
37.9851,75127
37.9915,71613
37.9978,69946
38.0041,75817
38.0104,68907
38.0167,70705
38.023,75327
38.0293,72421
38.0356,69341
38.0419,67615
38.0482,71064
38.0545,66640
38.0608,69056
38.0672,68198
38.0735,65849
38.0798,69014
38.0861,65708
38.0924,65753
38.0987,63896
38.105,68785
38.1113,65772
38.1176,64958
38.1239,66277
38.1302,61276
38.1365,63623
38.1429,66222
38.1492,69187
38.1555,69373
38.1618,71072
38.1681,72156
38.1744,78981
38.1807,77611
38.187,77285
38.1933,77302
38.1996,78869
38.2059,78833
38.2123,74305
38.2186,75609
38.2249,76528
38.2312,72896
38.2375,70620
38.2438,71896
38.2501,79107
38.2564,84360
38.2627,91523
38.269,113101
38.2753,153111
38.2816,235663
38.288,399783
38.2943,652012
38.3006,1081523
38.3069,1746794
38.3132,2722980
38.3195,4051084
38.3258,5872277
38.3321,7940912
38.3384,10356138
38.3447,13259866
38.351,16171021
38.3574,18885070
38.3637,22352944
38.37,25781208
38.3763,28918004
38.3826,31957534
38.3889,34919644
38.3952,38170480
38.4015,41713400
38.4078,44672868
38.4141,47041664
38.4204,48476432
38.4267,46756396
38.4331,38828272
38.4394,25960582
38.4457,15450129
38.452,9440333
38.4583,6315688
38.4646,4616528
38.4709,3639521
38.4772,2991687
38.4835,2535555
38.4898,2197189
38.4961,1954245
38.5025,1752981
38.5087,1581488
38.5151,1461238
38.5214,1331051
38.5277,1228022
38.534,1148450
38.5403,1069892
38.5466,1010866
38.5529,945342
38.5592,879619
38.5655,842441
38.5718,799010
38.5782,755857
38.5845,722388
38.5908,686849
38.5971,655795
38.6034,627447
38.6097,606199
38.616,579575
38.6223,562252
38.6286,539944
38.6349,530266
38.6412,501638
38.6475,488729
38.6538,477728
38.6602,467801
38.6665,443838
38.6728,434426
38.6791,407186
38.6854,412855
38.6917,394220
38.698,382134
38.7043,376613
38.7106,373172
38.7169,359082
38.7233,346539
38.7296,337069
38.7359,329680
38.7422,321166
38.7485,315434
38.7548,307164
38.7611,308165
38.7674,296204
38.7737,291271
38.78,286701
38.7863,288337
38.7926,276386
38.799,272787
38.8053,269277
38.8116,259297
38.8179,260047
38.8242,255244
38.8305,246796
38.8368,245488
38.8431,237095
38.8494,239400
38.8557,236826
38.862,231810
38.8684,225639
38.8747,222686
38.881,213181
38.8873,218574
38.8936,207593
38.8999,206114
38.9062,205992
38.9125,205474
38.9188,204917
38.9251,196003
38.9314,194913
38.9377,187297
38.9441,188348
38.9504,183747
38.9567,187797
38.963,183676
38.9693,181182
38.9756,180684
38.9819,176447
38.9882,178433
38.9945,172571
39.0008,169316
39.0071,170615
39.0134,170151
39.0198,169755
39.0261,170045
39.0324,159268
39.0387,158104
39.045,162406
39.0513,156952
39.0576,153870
39.0639,156368
39.0702,154120
39.0765,154579
39.0828,148495
39.0892,147678
39.0955,145764
39.1018,147932
39.1081,145521
39.1144,142365
39.1207,139658
39.127,141830
39.1333,138671
39.1396,135234
39.1459,140573
39.1522,133434
39.1585,135353
39.1649,132459
39.1712,133768
39.1775,129566
39.1838,130028
39.1901,128674
39.1964,127111
39.2027,128310
39.209,124502
39.2153,122999
39.2216,124436
39.2279,125840
39.2343,121041
39.2405,125379
39.2469,120922
39.2532,120041
39.2595,121815
39.2658,114979
39.2721,114463
39.2784,117082
39.2847,119124
39.291,116764
39.2973,114329
39.3036,113400
39.31,111538
39.3163,111283
39.3226,114862
39.3289,111873
39.3352,110278
39.3415,108880
39.3478,113924
39.3541,109002
39.3604,105916
39.3667,109842
39.373,102753
39.3794,106602
39.3857,104564
39.392,107095
39.3983,105998
39.4046,104115
39.4109,99429
39.4172,101401
39.4235,98394
39.4298,103035
39.4361,100545
39.4424,98123
39.4487,99567
39.4551,99785
39.4614,99847
39.4677,97461
39.474,96350
39.4803,98490
39.4866,99706
39.4929,92424
39.4992,97707
39.5055,93346
39.5118,97015
39.5181,95085
39.5244,91553
39.5308,95183
39.5371,96309
39.5434,92103
39.5497,95504
39.556,95447
39.5623,91622
39.5686,87478
39.5749,88846
39.5812,86833
39.5875,84678
39.5938,87142
39.6001,87662
39.6065,89164
39.6128,85966
39.6191,86210
39.6254,87979
39.6317,84688
39.638,85146
39.6443,85156
39.6506,84231
39.6569,89148
39.6632,85254
39.6695,86184
39.6759,85531
39.6822,86276
39.6885,87914
39.6948,87255
39.7011,86259
39.7074,86140
39.7137,91296
39.72,88535
39.7263,85268
39.7326,88636
39.7389,88993
39.7452,86267
39.7516,87147
39.7579,83619
39.7642,87175
39.7705,83923
39.7768,80382
39.7831,82430
39.7894,83608
39.7957,82725
39.802,79605
39.8083,77833
39.8146,81186
39.821,77913
39.8272,80388
39.8336,78303
39.8399,80003
39.8462,75964
39.8525,79184
39.8588,80111
39.8651,78933
39.8714,77275
39.8777,80379
39.884,77652
39.8904,77765
39.8967,72451
39.903,76598
39.9093,75403
39.9156,75600
39.9219,74888
39.9282,74267
39.9345,76962
39.9408,74996
39.9471,69999
39.9534,71378
39.9597,73669
39.9661,71721
39.9723,73246
39.9787,73618
39.985,75753
39.9913,74059
39.9976,70317
40.0039,71567
40.0102,73877
40.0165,74043
40.0228,74405
40.0291,73529
40.0354,74677
40.0418,71144
40.0481,72076
40.0544,70049
40.0607,72814
40.067,71738
40.0733,68016
40.0796,69874
40.0859,69243
40.0922,71000
40.0985,69314
40.1048,71777
40.1112,70209
40.1175,68748
40.1238,70873
40.1301,68970
40.1364,72243
40.1427,70284
40.149,70242
40.1553,72143
40.1616,70240
40.1679,68852
40.1742,69158
40.1805,72004
40.1869,69420
40.1932,68508
40.1995,69562
40.2058,66603
40.2121,70248
40.2184,66941
40.2247,73390
40.231,69191
40.2373,66351
40.2436,67761
40.2499,66953
40.2563,65707
40.2626,67666
40.2689,68735
40.2752,64132
40.2815,68999
40.2878,67463
40.2941,62775
40.3004,64927
40.3067,68781
40.313,64102
40.3193,65080
40.3256,65030
40.3319,66128
40.3383,65139
40.3446,64368
40.3509,63936
40.3572,66017
40.3635,62851
40.3698,63111
40.3761,62285
40.3824,60127
40.3887,62388
40.395,60962
40.4014,63902
40.4077,66085
40.414,63913
40.4203,63192
40.4266,62611
40.4329,62074
40.4392,60489
40.4455,63674
40.4518,61006
40.4581,63281
40.4644,61122
40.4707,56933
40.477,60931
40.4834,56333
40.4897,60709
40.496,60726
40.5023,58954
40.5086,62034
40.5149,61271
40.5212,61296
40.5275,60048
40.5338,60772
40.5401,64107
40.5464,64945
40.5528,66864
40.559,69680
40.5654,79568
40.5717,92590
40.578,116381
40.5843,152969
40.5906,217419
40.5969,304749
40.6032,458925
40.6095,677439
40.6158,978393
40.6222,1409743
40.6285,1939167
40.6348,2639766
40.6411,3543436
40.6474,4607701
40.6537,5865309
40.66,7288639
40.6663,8807882
40.6726,10653886
40.6789,12451693
40.6852,14056393
40.6915,15779131
40.6979,17581886
40.7041,19395630
40.7105,21199584
40.7168,23306812
40.7231,25409802
40.7294,27372470
40.7357,29295668
40.742,31714140
40.7483,33589552
40.7546,34937460
40.7609,34893280
40.7673,32887096
40.7736,28186018
40.7799,21840938
40.7862,15557594
40.7925,10615786
40.7988,7415304
40.8051,5472682
40.8114,4284328
40.8177,3488025
40.824,2967853
40.8303,2571374
40.8366,2276375
40.843,2052983
40.8493,1860103
40.8556,1692542
40.8619,1553770
40.8682,1438916
40.8745,1335473
40.8808,1249249
40.8871,1178983
40.8934,1082293
40.8997,1042302
40.906,983863
40.9123,936774
40.9187,889268
40.925,844954
40.9313,813585
40.9376,768531
40.9439,745055
40.9502,715671
40.9565,689457
40.9628,661569
40.9691,632254
40.9754,603217
40.9817,600522
40.9881,565784
40.9944,549447
41.0007,535022
41.007,524786
41.0133,517836
41.0196,491794
41.0259,477878
41.0322,471918
41.0385,444777
41.0448,445944
41.0511,432234
41.0574,420479
41.0637,402565
41.0701,403673
41.0764,383382
41.0827,381354
41.089,369505
41.0953,359551
41.1016,362307
41.1079,348818
41.1142,343221
41.1205,336631
41.1268,328852
41.1332,324884
41.1395,325274
41.1458,313554
41.1521,307131
41.1584,302803
41.1647,292275
41.171,294666
41.1773,287731
41.1836,283355
41.1899,277882
41.1962,273709
41.2025,261222
41.2089,255507
41.2152,252415
41.2215,248768
41.2278,251647
41.2341,251356
41.2404,247586
41.2467,242082
41.253,236197
41.2593,236245
41.2656,227991
41.2719,230160
41.2783,225615
41.2846,218418
41.2909,212563
41.2972,219995
41.3035,213010
41.3098,207812
41.3161,207119
41.3224,204365
41.3287,202742
41.335,206918
41.3413,199389
41.3476,194512
41.354,193487
41.3603,195632
41.3666,189646
41.3729,190477
41.3792,184254
41.3855,183040
41.3918,178985
41.3981,182894
41.4044,181038
41.4107,178509
41.417,175788
41.4233,171736
41.4297,169970
41.436,172244
41.4423,168495
41.4486,165886
41.4549,162546
41.4612,162077
41.4675,160404
41.4738,159422
41.4801,160820
41.4864,156030
41.4927,158353
41.4991,155046
41.5054,155593
41.5117,150209
41.518,152091
41.5243,150771
41.5306,145640
41.5369,146619
41.5432,145658
41.5495,146850
41.5558,144345
41.5621,145380
41.5684,139113
41.5748,137050
41.5811,140599
41.5874,139210
41.5937,138986
41.6,135989
41.6063,135243
41.6126,131035
41.6189,137293
41.6252,137703
41.6315,130070
41.6378,128695
41.6442,132314
41.6504,130574
41.6568,128361
