D:\JEREMY\CHROMATOGRAMS\20170621 SLOWRAMP3 AND 12SCENT\170701_OPall2_smp.d  6 Jul 17  12:08 am
Start of data points
3.89313,173542
3.89945,178908
3.90575,176823
3.91207,172367
3.91837,169045
3.92468,163336
3.93098,162068
3.9373,154046
3.9436,141969
3.94992,145991
3.95622,152244
3.96253,170761
3.96883,179517
3.97515,164545
3.98145,149958
3.98777,140324
3.99407,132082
4.00038,125822
4.00668,134952
4.013,137383
4.0193,136605
4.02562,146150
4.03192,141627
4.03823,141561
4.04455,135945
4.05085,125798
4.05717,126356
4.06347,122240
4.06978,122108
4.07608,117353
4.0824,116959
4.0887,114967
4.09502,120700
4.10132,128883
4.10763,127366
4.11393,120587
4.12025,122735
4.12655,127800
4.13287,126589
4.13917,121065
4.14548,111511
4.15178,107116
4.1581,100812
4.1644,100871
4.17072,103856
4.17702,102611
4.18333,98351
4.18963,102224
4.19595,104093
4.20225,100387
4.20857,98919
4.21488,98637
4.22118,99613
4.2275,97947
4.2338,103453
4.24012,107680
4.24642,106183
4.25273,102613
4.25903,99395
4.26535,102961
4.27165,111468
4.27797,114757
4.28427,111507
4.29058,117570
4.29688,123472
4.3032,127428
4.3095,128498
4.31582,114688
4.32212,104776
4.32843,102662
4.33473,96950
4.34105,91091
4.34735,88196
4.35367,87675
4.35997,91288
4.36628,89090
4.37258,87989
4.3789,98537
4.38522,121488
4.39152,174403
4.39783,234163
4.40413,230828
4.41045,173694
4.41675,138180
4.42307,104223
4.42937,90858
4.43568,85612
4.44198,79966
4.4483,82928
4.4546,79589
4.46092,85145
4.46722,86517
4.47353,82560
4.47983,78109
4.48615,70364
4.49245,75567
4.49877,74806
4.50507,75125
4.51138,77530
4.51768,70857
4.524,71920
4.5303,66501
4.53662,70058
4.54292,74227
4.54923,70886
4.55555,71578
4.56185,77273
4.56817,82154
4.57447,95668
4.58078,101175
4.58708,104981
4.5934,126812
4.5997,159450
4.60602,185746
4.61232,172338
4.61863,138756
4.62493,112591
4.63125,124173
4.63755,154950
4.64387,176842
4.65017,161475
4.65648,126912
4.66278,90386
4.6691,77133
4.6754,74323
4.68172,77062
4.68802,90651
4.69433,112986
4.70063,141597
4.70695,143245
4.71325,111770
4.71957,92752
4.72588,78990
4.73218,77715
4.7385,80402
4.7448,82022
4.75112,80542
4.75742,77767
4.76373,77177
4.77003,75385
4.77635,72272
4.78265,72105
4.78897,69797
4.79527,66048
4.80158,68281
4.80788,67145
4.8142,71518
4.8205,72000
4.82682,70550
4.83312,65501
4.83943,63480
4.84573,62623
4.85205,63098
4.85835,63879
4.86467,60369
4.87097,63511
4.87728,65556
4.88358,62467
4.8899,64477
4.8962,62746
4.90252,68315
4.90883,66047
4.91513,68446
4.92145,75999
4.92775,84515
4.93407,90801
4.94037,95843
4.94668,88306
4.95298,84716
4.9593,90091
4.9656,84575
4.97192,91412
4.97822,95009
4.98453,91095
4.99083,91630
4.99715,88293
5.00345,94602
5.00977,116828
5.01607,151030
5.02238,178250
5.02868,188373
5.035,160601
5.0413,132581
5.04762,116170
5.05392,109517
5.06023,105667
5.06653,101530
5.07285,94634
5.07917,91740
5.08547,92030
5.09178,93558
5.09808,89480
5.1044,98123
5.1107,124278
5.11702,161053
5.12332,202118
5.12963,223307
5.13593,203503
5.14225,171796
5.14855,146956
5.15487,131467
5.16117,133148
5.16748,157424
5.17378,180693
5.1801,211522
5.1864,215626
5.19272,191103
5.19902,148776
5.20533,128630
5.21163,119838
5.21795,122658
5.22425,114948
5.23057,123010
5.23687,132446
5.24318,148524
5.2495,188546
5.2558,270811
5.26212,378230
5.26842,434612
5.27473,410111
5.28103,321202
5.28735,234964
5.29365,161468
5.29997,125788
5.30627,104139
5.31258,99654
5.31888,97811
5.3252,99797
5.3315,119086
5.33782,172335
5.34412,215733
5.35043,265383
5.35673,242368
5.36305,197703
5.36935,154832
5.37567,135479
5.38197,130235
5.38828,156050
5.39458,185526
5.4009,223012
5.4072,223712
5.41352,208985
5.41983,164441
5.42613,139197
5.43245,182416
5.43875,243985
5.44507,225707
5.45137,219804
5.45768,194868
5.46398,148852
5.4703,182176
5.4766,95145
5.48292,84501
5.48922,76400
5.49553,75097
5.50183,78347
5.50815,75310
5.51445,79386
5.52077,77090
5.52707,76783
5.53338,80204
5.53968,86460
5.546,84367
5.5523,81100
5.55862,81782
5.56492,76051
5.57123,76904
5.57753,74186
5.58385,71521
5.59017,70863
5.59647,67649
5.60278,69768
5.60908,69388
5.6154,69095
5.6217,72738
5.62802,70198
5.63432,69758
5.64063,67633
5.64693,70425
5.65325,64044
5.65955,64809
5.66587,67371
5.67217,65101
5.67848,66528
5.68478,66978
5.6911,62057
5.6974,65877
5.70372,64491
5.71002,66985
5.71633,70152
5.72263,66401
5.72895,69445
5.73525,71397
5.74157,70069
5.74787,67502
5.75418,74474
5.76048,81070
5.7668,90440
5.77312,96191
5.77942,101423
5.78573,104582
5.79203,115702
5.79835,126570
5.80465,119929
5.81097,111171
5.81727,90477
5.82358,76813
5.82988,69520
5.8362,63276
5.8425,61623
5.84882,59958
5.85512,64517
5.86143,61661
5.86773,60992
5.87405,59555
5.88035,63532
5.88667,58930
5.89297,60049
5.89928,59424
5.90558,59279
5.9119,60781
5.9182,62188
5.92452,61600
5.93082,63531
5.93713,64461
5.94345,67399
5.94975,75369
5.95607,102336
5.96237,143859
5.96868,198613
5.97498,234499
5.9813,226235
5.9876,181906
5.99392,122528
6.00022,84386
6.00653,62386
6.01283,58941
6.01915,58019
6.02545,58784
6.03177,55848
6.03807,55527
6.04438,57680
6.05068,58602
6.057,59066
6.0633,59619
6.06962,60634
6.07592,59064
6.08223,56240
6.08853,60207
6.09485,60109
6.10115,58418
6.10747,62644
6.11378,63530
6.12008,58021
6.1264,56089
6.1327,59304
6.13902,55073
6.14532,54019
6.15163,55391
6.15793,54401
6.16425,55101
6.17055,52741
6.17687,55037
6.18317,57411
6.18948,55224
6.19578,59494
6.2021,58640
6.2084,56639
6.21472,55493
6.22102,55048
6.22733,52922
6.23363,53844
6.23995,52942
6.24625,53478
6.25257,53839
6.25887,54626
6.26518,54638
6.27148,54822
6.2778,53411
6.28412,54232
6.29042,57291
6.29673,55189
6.30303,56221
6.30935,55055
6.31565,56181
6.32197,57828
6.32827,54535
6.33458,59121
6.34088,59101
6.3472,60242
6.3535,62412
6.35982,61736
6.36612,63156
6.37243,62804
6.37873,61991
6.38505,63079
6.39135,61366
6.39767,60205
6.40397,58193
6.41028,55993
6.41658,57031
6.4229,54196
6.4292,53655
6.43552,53516
6.44182,52899
6.44813,50826
6.45445,50411
6.46075,52792
6.46707,57408
6.47337,56635
6.47968,57239
6.48598,62089
6.4923,59066
6.4986,63131
6.50492,68731
6.51122,92675
6.51753,138034
6.52383,220628
6.53015,316643
6.53645,377872
6.54277,367189
6.54907,291007
6.55538,198286
6.56168,119058
6.568,79203
6.5743,71812
6.58062,65109
6.58692,67409
6.59323,65513
6.59953,67718
6.60585,61731
6.61215,66018
6.61847,61509
6.62477,59268
6.63108,63750
6.6374,69142
6.6437,74396
6.65002,84919
6.65632,88655
6.66263,97018
6.66893,99128
6.67525,100190
6.68155,125327
6.68787,142519
6.69417,171867
6.70048,190904
6.70678,211930
6.7131,225977
6.7194,238418
6.72572,258150
6.73202,280502
6.73833,301992
6.74463,324203
6.75095,337437
6.75725,352181
6.76357,371467
6.76987,387826
6.77618,410182
6.78248,438810
6.7888,459501
6.7951,486986
6.80142,518466
6.80773,531266
6.81403,550353
6.82035,574007
6.82665,595145
6.83297,617275
6.83927,645763
6.84558,649018
6.85188,676938
6.8582,697075
6.8645,720693
6.87082,746589
6.87712,783467
6.88343,797273
6.88973,805560
6.89605,827269
6.90235,875271
6.90867,936613
6.91497,964077
6.92128,1009255
6.92758,1072544
6.9339,1100271
6.9402,1149479
6.94652,1186062
6.95282,1231109
6.95913,1313995
6.96543,1396130
6.97175,1527142
6.97807,1659010
6.98437,1854788
6.99068,2101752
6.99698,2392357
7.0033,2721463
7.0096,3131410
7.01592,3513168
7.02222,3863809
7.02853,4200642
7.03483,4557026
7.04115,4814799
7.04745,5059334
7.05377,5510943
7.06007,5818229
7.06638,5765422
7.07268,2815984
7.079,632499
7.0853,407739
7.09162,374352
7.09792,362127
7.10423,350118
7.11053,342434
7.11685,330993
7.12315,340706
7.12947,336569
7.13577,346021
7.14208,364142
7.1484,379224
7.1547,392375
7.16102,428484
7.16732,443096
7.17363,488526
7.17993,539951
7.18625,650920
7.19255,759819
7.19887,935364
7.20517,1085649
7.21148,1309942
7.21778,1526582
7.2241,1747218
7.2304,1942487
7.23672,2240513
7.24302,2420392
7.24933,2326475
7.25563,1261966
7.26195,417093
7.26825,195279
7.27457,136030
7.28087,119307
7.28718,106602
7.29348,100139
7.2998,94781
7.3061,95365
7.31242,95698
7.31873,89313
7.32503,86599
7.33135,80909
7.33765,80163
7.34397,81692
7.35027,95878
7.35658,98505
7.36288,102206
7.3692,98487
7.3755,95659
7.38182,86475
7.38812,80870
7.39443,82244
7.40073,76977
7.40705,74606
7.41335,79058
7.41967,75434
7.42597,75592
7.43228,88501
7.43858,102039
7.4449,122383
7.4512,153478
7.45752,180352
7.46382,192917
7.47013,199157
7.47643,194302
7.48275,174964
7.48905,154189
7.49537,149683
7.50168,149340
7.50798,139196
7.5143,125210
7.5206,107406
7.52692,90258
7.53322,79239
7.53953,72811
7.54583,68044
7.55215,65345
7.55845,61661
7.56477,61501
7.57107,58267
7.57738,58386
7.58368,58720
7.59,54885
7.5963,53097
7.60262,57514
7.60892,51635
7.61523,53316
7.62153,49933
7.62785,51014
7.63415,50542
7.64047,50565
7.64677,52925
7.65308,49378
7.65938,47694
7.6657,49551
7.67202,46887
7.67832,47040
7.68463,47263
7.69093,50847
7.69725,52208
7.70355,49507
7.70987,56465
7.71617,56270
7.72248,58335
7.72878,60854
7.7351,68232
7.7414,65202
7.74772,57105
7.75402,58544
7.76033,51925
7.76663,53407
7.77295,52422
7.77925,49797
7.78557,48947
7.79187,48281
7.79818,48060
7.80448,46678
7.8108,44886
7.8171,48163
7.82342,47857
7.82972,50417
7.83603,54974
7.84235,54796
7.84865,54568
7.85497,54264
7.86127,52216
7.86758,52326
7.87388,51767
7.8802,51995
7.8865,53339
7.89282,51800
7.89912,49392
7.90543,49542
7.91173,50003
7.91805,50577
7.92435,54343
7.93067,54818
7.93697,64647
7.94328,65552
7.94958,63886
7.9559,66187
7.9622,63333
7.96852,61715
7.97482,57272
7.98113,50925
7.98743,52375
7.99375,49827
8.00005,48608
8.00637,43861
8.01268,39865
8.01898,43881
8.0253,44720
8.0316,43952
8.03792,45108
8.04422,45240
8.05053,48521
8.05683,47529
8.06315,50357
8.06945,46563
8.07577,51677
8.08207,55294
8.08838,60514
8.09468,67577
8.101,70875
8.1073,77850
8.11362,76945
8.11992,74454
8.12623,69259
8.13253,63243
8.13885,64099
8.14515,73150
8.15147,88103
8.15777,106685
8.16408,124098
8.17038,140843
8.1767,137604
8.18302,129049
8.18932,109571
8.19563,85164
8.20193,72429
8.20825,58344
8.21455,53510
8.22087,47157
8.22717,43314
8.23348,46025
8.23978,45357
8.2461,43625
8.2524,45926
8.25872,47852
8.26502,49751
8.27133,52810
8.27763,58331
8.28395,65343
8.29025,63988
8.29657,64534
8.30287,66351
8.30918,57753
8.31548,52295
8.3218,50547
8.3281,45161
8.33442,48188
8.34072,46712
8.34703,51969
8.35333,54122
8.35965,61590
8.36597,66632
8.37227,73389
8.37858,76317
8.38488,77345
8.3912,83209
8.3975,84502
8.40382,88514
8.41012,96696
8.41643,94495
8.42273,104687
8.42905,104041
8.43535,117582
8.44167,139791
8.44797,174844
8.45428,239768
8.46058,364846
8.4669,574314
8.4732,849294
8.47952,1197063
8.48582,1452691
8.49213,1489869
8.49843,1165677
8.50475,795511
8.51105,421576
8.51737,228316
8.52367,170722
8.52998,189920
8.5363,226106
8.5426,228424
8.54892,225675
8.55522,230703
8.56153,244442
8.56783,266880
8.57415,265038
8.58045,236533
8.58677,186970
8.59307,147942
8.59938,117097
8.60568,95632
8.612,82011
8.6183,69053
8.62462,61477
8.63092,57962
8.63723,61018
8.64353,60669
8.64985,53331
8.65615,53680
8.66247,52541
8.66877,50365
8.67508,53306
8.68138,51913
8.6877,51625
8.694,47944
8.70032,46539
8.70663,47358
8.71293,47676
8.71925,55064
8.72555,46939
8.73187,48049
8.73817,51032
8.74448,48042
8.75078,48484
8.7571,46573
8.7634,47072
8.76972,44754
8.77602,45438
8.78233,40575
8.78863,42081
8.79495,42308
8.80125,41683
8.80757,38086
8.81387,39938
8.82018,41405
8.82648,39935
8.8328,41953
8.8391,41610
8.84542,43102
8.85172,43742
8.85803,44683
8.86433,41121
8.87065,44767
8.87697,43805
8.88327,44396
8.88958,43006
8.89588,46723
8.9022,46198
8.9085,45096
8.91482,46700
8.92112,52886
8.92743,54355
8.93373,53663
8.94005,54863
8.94635,51081
8.95267,47987
8.95897,45588
8.96528,46527
8.97158,44946
8.9779,42645
8.9842,43830
8.99052,46139
8.99682,43899
9.00313,43660
9.00943,41946
9.01575,41067
9.02205,41408
9.02837,39382
9.03467,40015
9.04098,40174
9.0473,39776
9.0536,41515
9.05992,40052
9.06622,39153
9.07253,37001
9.07883,36199
9.08515,38572
9.09145,38066
9.09777,40715
9.10407,39840
9.11038,44712
9.11668,41443
9.123,41559
9.1293,40498
9.13562,41104
9.14192,39444
9.14823,42024
9.15453,46283
9.16085,55249
9.16715,69669
9.17347,79366
9.17977,81279
9.18608,77864
9.19238,67662
9.1987,53955
9.205,48191
9.21132,45499
9.21762,44237
9.22393,46022
9.23025,46274
9.23655,46891
9.24287,47470
9.24917,43678
9.25548,42850
9.26178,40537
9.2681,39610
9.2744,41848
9.28072,52522
9.28702,65263
9.29333,96926
9.29963,143521
9.30595,205664
9.31225,260756
9.31857,285329
9.32487,266269
9.33118,207765
9.33748,155095
9.3438,104517
9.3501,70858
9.35642,54299
9.36272,46857
9.36903,46389
9.37533,41955
9.38165,39702
9.38795,39449
9.39427,37607
9.40058,37437
9.40688,40628
9.4132,42549
9.4195,44648
9.42582,50192
9.43212,55087
9.43843,58817
9.44473,60768
9.45105,63082
9.45735,65833
9.46367,62235
9.46997,57262
9.47628,52719
9.48258,44383
9.4889,45174
9.4952,41988
9.50152,43640
9.50782,42483
9.51413,45199
9.52043,50591
9.52675,71716
9.53305,119896
9.53937,212971
9.54567,346457
9.55198,499079
9.55828,610188
9.5646,629417
9.57092,541894
9.57722,396000
9.58353,248789
9.58983,146691
9.59615,86779
9.60245,59102
9.60877,46361
9.61507,43174
9.62138,38841
9.62768,35598
9.634,36492
9.6403,34701
9.64662,40911
9.65292,39293
9.65923,38479
9.66553,40044
9.67185,38792
9.67815,43337
9.68447,43888
9.69077,44408
9.69708,47947
9.70338,47985
9.7097,42626
9.716,42893
9.72232,39451
9.72862,37145
9.73493,37295
9.74125,37642
9.74755,39541
9.75387,36465
9.76017,38591
9.76648,47697
9.77278,50129
9.7791,58562
9.7854,63233
9.79172,65843
9.79802,64082
9.80433,59787
9.81063,55883
9.81695,51139
9.82325,45432
9.82957,39727
9.83587,34792
9.84218,34836
9.84848,36411
9.8548,35087
9.8611,34533
9.86742,34042
9.87372,34025
9.88003,34993
9.88633,33231
9.89265,36328
9.89895,34058
9.90527,37862
9.91158,36790
9.91788,39968
9.9242,36073
9.9305,36709
9.93682,37986
9.94312,34548
9.94943,34921
9.95573,32983
9.96205,35786
9.96835,34782
9.97467,36179
9.98097,40566
9.98728,47425
9.99358,60516
9.9999,71533
10.0062,74290
10.0125,71035
10.0188,61404
10.0251,57985
10.0314,50442
10.0378,47202
10.0441,43224
10.0504,46135
10.0567,47629
10.063,59026
10.0693,77046
10.0756,95318
10.0819,110084
10.0882,114348
10.0945,111202
10.1008,108148
10.1072,113608
10.1135,133669
10.1198,161360
10.1261,192529
10.1324,187116
10.1387,172782
10.145,140448
10.1513,105584
10.1576,74545
10.1639,57904
10.1702,47988
10.1765,47498
10.1829,45642
10.1892,41992
10.1955,38045
10.2018,34116
10.2081,34663
10.2144,33715
10.2207,38095
10.227,39749
10.2333,47989
10.2396,49212
10.2459,55025
10.2522,55759
10.2586,53660
10.2649,49812
10.2712,39943
10.2775,42042
10.2838,43314
10.2901,43170
10.2964,44770
10.3027,44227
10.309,44322
10.3153,45144
10.3216,47365
10.328,41091
10.3343,44025
10.3406,41888
10.3469,40331
10.3532,41482
10.3595,37619
10.3658,35964
10.3721,34181
10.3784,35540
10.3847,33077
10.391,39830
10.3973,39972
10.4037,41560
10.41,45487
10.4163,48460
10.4226,47074
10.4289,44894
10.4352,45762
10.4415,40323
10.4478,40249
10.4541,40214
10.4604,40822
10.4667,42327
10.4731,43160
10.4794,43046
10.4857,54079
10.492,65072
10.4983,87441
10.5046,104755
10.5109,123045
10.5172,126732
10.5235,143813
10.5298,161010
10.5361,222810
10.5424,381837
10.5488,667211
10.5551,1116586
10.5614,1630466
10.5677,2074430
10.574,2224793
10.5803,2055420
10.5866,1563120
10.5929,1082040
10.5992,660123
10.6055,378371
10.6118,228564
10.6182,164426
10.6245,125078
10.6308,102402
10.6371,89740
10.6434,76880
10.6497,65553
10.656,66813
10.6623,65416
10.6686,61547
10.6749,57770
10.6812,50131
10.6875,49078
10.6939,49813
10.7002,51804
10.7065,47628
10.7128,48225
10.7191,50584
10.7254,53847
10.7317,59927
10.738,71502
10.7443,90004
10.7506,117198
10.7569,138696
10.7632,157274
10.7696,149342
10.7759,126321
10.7822,105249
10.7885,85029
10.7948,72642
10.8011,66118
10.8074,63146
10.8137,63067
10.82,58562
10.8263,51447
10.8326,46370
10.839,41458
10.8453,39445
10.8516,44380
10.8579,48204
10.8642,56845
10.8705,70651
10.8768,83559
10.8831,104033
10.8894,151879
10.8957,277956
10.902,627582
10.9083,1424169
10.9147,2956953
10.921,5398349
10.9273,8848987
10.9336,13027294
10.9399,17075602
10.9462,19473476
10.9525,17751870
10.9588,12839462
10.9651,7273641
10.9714,3307930
10.9777,1253320
10.9841,472032
10.9904,195999
10.9967,117187
11.003,88628
11.0093,80707
11.0156,74316
11.0219,70606
11.0282,64801
11.0345,64437
11.0408,64461
11.0471,66921
11.0534,92547
11.0598,155908
11.0661,324955
11.0724,687172
11.0787,1321267
11.085,2145949
11.0913,2957344
11.0976,3539138
11.1039,3546343
11.1102,2838604
11.1165,1879581
11.1228,1070080
11.1292,525628
11.1355,233072
11.1418,114764
11.1481,67611
11.1544,53093
11.1607,48846
11.167,45629
11.1733,43680
11.1796,44799
11.1859,41801
11.1922,47973
11.1985,52646
11.2049,58325
11.2112,66084
11.2175,77864
11.2238,72025
11.2301,70441
11.2364,63239
11.2427,51088
11.249,56401
11.2553,51537
11.2616,59400
11.2679,75862
11.2742,95209
11.2806,112073
11.2869,126487
11.2932,127077
11.2995,116490
11.3058,107920
11.3121,96762
11.3184,85269
11.3247,86822
11.331,114676
11.3373,189811
11.3436,357890
11.35,636871
11.3563,1051492
11.3626,1466034
11.3689,1714088
11.3752,1709617
11.3815,1412515
11.3878,957735
11.3941,566393
11.4004,308673
11.4067,164105
11.413,95427
11.4193,70792
11.4257,54188
11.432,54410
11.4383,51181
11.4446,48447
11.4509,45176
11.4572,43435
11.4635,43172
11.4698,45049
11.4761,59714
11.4824,100686
11.4887,233294
11.4951,542741
11.5014,1158989
11.5077,2158659
11.514,3542663
11.5203,4953872
11.5266,5925616
11.5329,5849086
11.5392,4703032
11.5455,3051596
11.5518,1574231
11.5581,694291
11.5644,292962
11.5708,139472
11.5771,89836
11.5834,82410
11.5897,85861
11.596,86847
11.6023,81686
11.6086,75632
11.6149,69887
11.6212,64295
11.6275,65509
11.6338,83051
11.6402,103614
11.6465,138619
11.6528,158897
11.6591,175515
11.6654,152470
11.6717,133186
11.678,102424
11.6843,73980
11.6906,56903
11.6969,49721
11.7032,44585
11.7095,44033
11.7159,41343
11.7222,38188
11.7285,39078
11.7348,38032
11.7411,37796
11.7474,36704
11.7537,39934
11.76,40807
11.7663,44817
11.7726,47993
11.7789,47470
11.7852,49021
11.7916,51248
11.7979,55937
11.8042,53529
11.8105,52769
11.8168,49791
11.8231,48663
11.8294,43822
11.8357,43302
11.842,39967
11.8483,36985
11.8546,37418
11.861,44623
11.8673,49448
11.8736,58930
11.8799,65919
11.8862,74780
11.8925,82262
11.8988,78067
11.9051,82668
11.9114,62179
11.9177,52662
11.924,45278
11.9303,40215
11.9367,35434
11.943,35459
11.9493,33235
11.9556,34417
11.9619,37433
11.9682,40804
11.9745,42224
11.9808,47052
11.9871,54305
11.9934,66397
11.9997,101345
12.0061,151513
12.0124,243918
12.0187,355282
12.025,447667
12.0313,472608
12.0376,462382
12.0439,459636
12.0502,528919
12.0565,670156
12.0628,887382
12.0691,1056711
12.0754,1108696
12.0818,969930
12.0881,739546
12.0944,485657
12.1007,293035
12.107,200546
12.1133,153046
12.1196,135357
12.1259,126516
12.1322,108105
12.1385,93069
12.1448,79525
12.1511,75822
12.1575,74867
12.1638,67411
12.1701,66828
12.1764,58739
12.1827,53801
12.189,45859
12.1953,40824
12.2016,41559
12.2079,39483
12.2142,34381
12.2205,37069
12.2269,41035
12.2332,44144
12.2395,53254
12.2458,64622
12.2521,77582
12.2584,96072
12.2647,109588
12.271,103721
12.2773,90869
12.2836,75196
12.2899,64501
12.2962,58334
12.3026,61552
12.3089,75542
12.3152,87151
12.3215,111407
12.3278,111306
12.3341,102801
12.3404,86931
12.3467,74139
12.353,61612
12.3593,55844
12.3656,48052
12.372,47289
12.3783,46466
12.3846,44128
12.3909,44604
12.3972,49901
12.4035,52023
12.4098,53795
12.4161,54697
12.4224,48227
12.4287,47685
12.435,45526
12.4413,42720
12.4477,45035
12.454,44425
12.4603,47231
12.4666,47802
12.4729,46315
12.4792,44437
12.4855,41197
12.4918,45278
12.4981,47498
12.5044,49164
12.5107,55892
12.5171,58801
12.5234,60121
12.5297,61808
12.536,61104
12.5423,64967
12.5486,64936
12.5549,65524
12.5612,66135
12.5675,63652
12.5738,58372
12.5801,50618
12.5864,47715
12.5928,38529
12.5991,35515
12.6054,33902
12.6117,32370
12.618,30219
12.6243,33931
12.6306,37265
12.6369,46237
12.6432,49596
12.6495,52055
12.6558,52149
12.6621,50099
12.6685,46742
12.6748,45088
12.6811,39932
12.6874,38284
12.6937,42796
12.7,48652
12.7063,62158
12.7126,80043
12.7189,117774
12.7252,148637
12.7315,182007
12.7379,203637
12.7442,207737
12.7505,180883
12.7568,145176
12.7631,110669
12.7694,83502
12.7757,62110
12.782,50460
12.7883,44391
12.7946,39837
12.8009,37255
12.8072,40839
12.8136,38845
12.8199,37094
12.8262,34726
12.8325,36055
12.8388,37797
12.8451,39834
12.8514,55779
12.8577,98223
12.864,185241
12.8703,346725
12.8766,589828
12.883,907810
12.8893,1171730
12.8956,1351328
12.9019,1401832
12.9082,1316127
12.9145,1140018
12.9208,925689
12.9271,753880
12.9334,632662
12.9397,586314
12.946,601830
12.9523,730818
12.9587,1104035
12.965,1910218
12.9713,3437183
12.9776,6073216
12.9839,9999583
12.9902,15703582
12.9965,22750286
13.0028,31613874
13.0091,41078736
13.0154,50161016
13.0217,57529140
13.0281,64092096
13.0344,67400472
13.0407,64598500
13.047,47950084
13.0533,19964128
13.0596,5847808
13.0659,2152124
13.0722,1368850
13.0785,1107410
13.0848,914457
13.0911,723658
13.0974,573603
13.1038,533000
13.1101,626981
13.1164,902337
13.1227,1282623
13.129,1714256
13.1353,1941782
13.1416,1888424
13.1479,1568064
13.1542,1114907
13.1605,689264
13.1668,373335
13.1731,218163
13.1795,142374
13.1858,107923
13.1921,103727
13.1984,95456
13.2047,92319
13.211,84717
13.2173,78356
13.2236,77245
13.2299,72943
13.2362,71198
13.2425,68358
13.2489,68554
13.2552,65972
13.2615,65802
13.2678,64894
13.2741,61966
13.2804,62163
13.2867,63985
13.293,57875
13.2993,58427
13.3056,57948
13.3119,55769
13.3182,55095
13.3246,52007
13.3309,52306
13.3372,54698
13.3435,53520
13.3498,54349
13.3561,58257
13.3624,60193
13.3687,55763
13.375,58646
13.3813,56157
13.3876,60669
13.394,66103
13.4003,70904
13.4066,72276
13.4129,81051
13.4192,79276
13.4255,75504
13.4318,72631
13.4381,79900
13.4444,128322
13.4507,275475
13.457,671944
13.4633,1479636
13.4697,2963838
13.476,5514350
13.4823,9074490
13.4886,13852673
13.4949,19550528
13.5012,26483770
13.5075,33651316
13.5138,40883008
13.5201,46913108
13.5264,49672328
13.5327,44037432
13.539,27471962
13.5454,10097444
13.5517,2761215
13.558,778791
13.5643,309261
13.5706,185885
13.5769,140223
13.5832,117513
13.5895,99778
13.5958,88770
13.6021,80481
13.6084,75534
13.6148,77156
13.6211,75425
13.6274,73497
13.6337,86491
13.64,96786
13.6463,112318
13.6526,123905
13.6589,129064
13.6652,121503
13.6715,114557
13.6778,100510
13.6841,86286
13.6905,75782
13.6968,66681
13.7031,55337
13.7094,54151
13.7157,57070
13.722,64749
13.7283,89774
13.7346,126827
13.7409,187576
13.7472,266831
13.7535,333844
13.7599,374409
13.7662,348298
13.7725,287839
13.7788,207292
13.7851,146867
13.7914,101056
13.7977,77373
13.804,66091
13.8103,64290
13.8166,64991
13.8229,68925
13.8292,69876
13.8356,68726
13.8419,63650
13.8482,62732
13.8545,56271
13.8608,53378
13.8671,61882
13.8734,76160
13.8797,98223
13.886,129642
13.8923,151764
13.8986,170768
13.905,162471
13.9113,145389
13.9176,124419
13.9239,109970
13.9302,108227
13.9365,124448
13.9428,139992
13.9491,158316
13.9554,145342
13.9617,130820
13.968,106289
13.9743,82746
13.9807,60603
13.987,50768
13.9933,40232
13.9996,43000
14.0059,38260
14.0122,40245
14.0185,40256
14.0248,39018
14.0311,38373
14.0374,38561
14.0437,33975
14.05,36749
14.0564,34420
14.0627,38926
14.069,37395
14.0753,39730
14.0816,40046
14.0879,42013
14.0942,43507
14.1005,42339
14.1068,47336
14.1131,50504
14.1194,56924
14.1258,65491
14.1321,80540
14.1384,83588
14.1447,92750
14.151,90969
14.1573,83635
14.1636,67703
14.1699,60918
14.1762,54127
14.1825,45447
14.1888,39197
14.1951,38707
14.2015,39213
14.2078,38528
14.2141,40945
14.2204,43021
14.2267,40627
14.233,39972
14.2393,39752
14.2456,39411
14.2519,39036
14.2582,44370
14.2645,48806
14.2709,53528
14.2772,61248
14.2835,65875
14.2898,78259
14.2961,99034
14.3024,118147
14.3087,141724
14.315,166593
14.3213,188643
14.3276,195338
14.3339,186172
14.3402,170537
14.3466,152200
14.3529,125688
14.3592,106411
14.3655,90034
14.3718,81572
14.3781,74481
14.3844,67619
14.3907,66541
14.397,63227
14.4033,64155
14.4096,62006
14.416,67539
14.4223,71179
14.4286,77356
14.4349,83082
14.4412,95858
14.4475,110668
14.4538,133373
14.4601,169809
14.4664,223330
14.4727,267312
14.479,301542
14.4853,298191
14.4917,270461
14.498,217260
14.5043,158548
14.5106,118431
14.5169,85156
14.5232,60974
14.5295,58263
14.5358,46473
14.5421,48702
14.5484,52521
14.5547,50273
14.561,48623
14.5674,48874
14.5737,47772
14.58,50507
14.5863,54615
14.5926,65914
14.5989,82734
14.6052,105232
14.6115,128369
14.6178,160929
14.6241,178068
14.6304,180329
14.6368,167731
14.6431,134875
14.6494,102967
14.6557,73412
14.662,55780
14.6683,42704
14.6746,40007
14.6809,41846
14.6872,39089
14.6935,43069
14.6998,41810
14.7061,43457
14.7125,42442
14.7188,43194
14.7251,43792
14.7314,41511
14.7377,45918
14.744,51196
14.7503,56433
14.7566,58136
14.7629,65175
14.7692,65807
14.7755,69011
14.7819,70914
14.7882,67399
14.7945,66583
14.8008,66969
14.8071,63760
14.8134,64300
14.8197,63726
14.826,61607
14.8323,61601
14.8386,56382
14.8449,55227
14.8512,55107
14.8576,53965
14.8639,49535
14.8702,49875
14.8765,46303
14.8828,42210
14.8891,38912
14.8954,35920
14.9017,34989
14.908,33066
14.9143,36411
14.9206,32339
14.927,34038
14.9333,32492
14.9396,35828
14.9459,36676
14.9522,37797
14.9585,35591
14.9648,38728
14.9711,41900
14.9774,44190
14.9837,49418
14.99,60274
14.9963,70306
15.0027,87561
15.009,102422
15.0153,123135
15.0216,140027
15.0279,152363
15.0342,165224
15.0405,156260
15.0468,149045
15.0531,123779
15.0594,97654
15.0657,74038
15.072,58131
15.0784,53025
15.0847,55390
15.091,79738
15.0973,112567
15.1036,160505
15.1099,228770
15.1162,300207
15.1225,358374
15.1288,412523
15.1351,427328
15.1414,402106
15.1478,355862
15.1541,295890
15.1604,237286
15.1667,172383
15.173,134039
15.1793,105159
15.1856,83040
15.1919,73940
15.1982,72556
15.2045,79915
15.2108,77650
15.2171,90011
15.2235,96587
15.2298,95983
15.2361,89811
15.2424,87972
15.2487,95801
15.255,104095
15.2613,133062
15.2676,172380
15.2739,215555
15.2802,268589
15.2865,317031
15.2929,363506
15.2992,372003
15.3055,352994
15.3118,318647
15.3181,267817
15.3244,230809
15.3307,188075
15.337,163641
15.3433,133673
15.3496,111516
15.3559,102853
15.3622,98798
15.3686,96442
15.3749,90758
15.3812,83244
15.3875,79361
15.3938,70191
15.4001,67699
15.4064,69716
15.4127,59046
15.419,64685
15.4253,78018
15.4316,109512
15.4379,165092
15.4443,283605
15.4506,468349
15.4569,751027
15.4632,1159819
15.4695,1683333
15.4758,2221398
15.4821,2843537
15.4884,3433970
15.4947,3922309
15.501,4148905
15.5073,3744580
15.5137,2893673
15.52,1969492
15.5263,1112158
15.5326,579548
15.5389,291017
15.5452,160658
15.5515,107167
15.5578,86059
15.5641,76054
15.5704,67596
15.5767,63833
15.583,62372
15.5894,59714
15.5957,61181
15.602,59750
15.6083,59932
15.6146,59370
15.6209,57782
15.6272,54827
15.6335,51331
15.6398,53056
15.6461,46808
15.6524,44710
15.6588,43505
15.6651,40909
15.6714,42044
15.6777,43645
15.684,45222
15.6903,57150
15.6966,58736
15.7029,65250
15.7092,81921
15.7155,91356
15.7218,102921
15.7281,117626
15.7345,132017
15.7408,138147
15.7471,133679
15.7534,121451
15.7597,108410
15.766,95023
15.7723,87049
15.7786,79241
15.7849,78036
15.7912,75760
15.7975,76352
15.8039,72484
15.8102,66482
15.8165,57822
15.8228,53085
15.8291,48049
15.8354,47952
15.8417,46196
15.848,46493
15.8543,41480
15.8606,40624
15.8669,36223
15.8732,35471
15.8796,33775
15.8859,37294
15.8922,35467
15.8985,36947
15.9048,37451
15.9111,44784
15.9174,49165
15.9237,56417
15.93,60757
15.9363,67940
15.9426,71984
15.9489,70609
15.9553,61817
15.9616,57254
15.9679,55308
15.9742,48363
15.9805,45186
15.9868,43660
15.9931,44400
15.9994,42613
16.0057,45415
16.012,45664
16.0183,45575
16.0247,49813
16.031,50619
16.0373,49795
16.0436,44401
16.0499,47443
16.0562,44315
16.0625,38574
16.0688,39098
16.0751,37462
16.0814,33638
16.0877,34372
16.094,34833
16.1003,32794
16.1066,34321
16.113,32146
16.1193,31997
16.1256,32896
16.1319,30639
16.1382,30579
16.1445,31067
16.1508,30143
16.1571,31442
16.1634,29044
16.1698,29979
16.1761,29407
16.1824,28996
16.1887,30182
16.195,31611
16.2013,31753
16.2076,35025
16.2139,38162
16.2202,43290
16.2265,50806
16.2328,54471
16.2391,65540
16.2455,75004
16.2518,75643
16.2581,77381
16.2644,71424
16.2707,69378
16.277,63294
16.2833,65536
16.2896,68349
16.2959,70484
16.3022,71879
16.3085,71817
16.3149,66314
16.3211,61949
16.3275,55402
16.3338,52772
16.3401,43263
16.3464,38007
16.3527,34843
16.359,33073
16.3653,33678
16.3716,36002
16.3779,38934
16.3842,44318
16.3906,48768
16.3969,55681
16.4032,59889
16.4095,64802
16.4158,70028
16.4221,72400
16.4284,74626
16.4347,85458
16.441,81715
16.4473,72988
16.4536,63680
16.4599,58109
16.4662,47161
16.4725,44327
16.4789,38391
16.4852,36789
16.4915,34952
16.4978,31241
16.5041,29546
16.5104,32015
16.5167,40518
16.523,52376
16.5293,72584
16.5357,95278
16.542,116003
16.5483,133716
16.5546,150578
16.5609,158536
16.5672,154133
16.5735,150335
16.5798,148669
16.5861,150402
16.5924,156506
16.5987,162857
16.605,163524
16.6114,166236
16.6177,161193
16.624,148490
16.6303,130266
16.6366,109650
16.6429,85580
16.6492,64000
16.6555,54001
16.6618,48202
16.6681,38369
16.6744,33342
16.6808,32210
16.687,32977
16.6934,30703
16.6997,31166
16.706,30347
16.7123,30608
16.7186,30830
16.7249,28323
16.7312,27583
16.7375,29552
16.7438,28697
16.7501,26463
16.7565,28011
16.7628,27558
16.7691,26838
16.7754,25148
16.7817,23651
16.788,26164
16.7943,24196
16.8006,24205
16.8069,26296
16.8132,25258
16.8195,26780
16.8258,26578
16.8321,30102
16.8385,31526
16.8448,32544
16.8511,39901
16.8574,43035
16.8637,51320
16.87,57899
16.8763,68326
16.8826,77312
16.8889,94277
16.8952,109227
16.9016,120270
16.9079,131554
16.9142,136812
16.9205,133427
16.9268,113335
16.9331,98667
16.9394,78737
16.9457,59962
16.952,46406
16.9583,37045
16.9646,32393
16.9709,28590
16.9773,27948
16.9836,25704
16.9899,23302
16.9962,25680
17.0025,26102
17.0088,25725
17.0151,27620
17.0214,27496
17.0277,27903
17.034,34450
17.0403,30039
17.0467,31671
17.0529,33926
17.0593,32715
17.0656,33130
17.0719,30044
17.0782,31752
17.0845,35039
17.0908,34759
17.0971,36138
17.1034,40270
17.1097,45506
17.116,46505
17.1224,45092
17.1287,48350
17.135,48602
17.1413,42468
17.1476,38227
17.1539,34679
17.1602,34068
17.1665,30556
17.1728,31687
17.1791,32425
17.1854,33082
17.1917,34327
17.198,37296
17.2044,41874
17.2107,42340
17.217,45075
17.2233,48786
17.2296,52893
17.2359,55395
17.2422,55707
17.2485,57831
17.2548,56481
17.2611,55864
17.2675,52265
17.2738,49393
17.2801,46764
17.2864,45731
17.2927,47276
17.299,48346
17.3053,47824
17.3116,47361
17.3179,54010
17.3242,56269
17.3305,61422
17.3368,65485
17.3432,76723
17.3495,87809
17.3558,101897
17.3621,117204
17.3684,133222
17.3747,140995
17.381,148666
17.3873,140221
17.3936,136525
17.3999,126541
17.4062,116183
17.4126,110901
17.4189,102256
17.4252,89613
17.4315,77922
17.4378,65594
17.4441,52079
17.4504,43333
17.4567,39704
17.463,35703
17.4693,34311
17.4756,33491
17.4819,29561
17.4883,27031
17.4946,27913
17.5009,25784
17.5072,23239
17.5135,21168
17.5198,19399
17.5261,21532
17.5324,18237
17.5387,20645
17.545,20891
17.5513,20584
17.5577,20405
17.564,24443
17.5703,29107
17.5766,36013
17.5829,48511
17.5892,64097
17.5955,92550
17.6018,131522
17.6081,175097
17.6144,220884
17.6207,277352
17.627,339416
17.6334,402128
17.6397,466769
17.646,529446
17.6523,607041
17.6586,616346
17.6649,611923
17.6712,578902
17.6775,503134
17.6838,405527
17.6901,290612
17.6964,203568
17.7028,136403
17.7091,92199
17.7154,67916
17.7217,54615
17.728,47448
17.7343,40267
17.7406,38899
17.7469,36528
17.7532,34632
17.7595,32325
17.7658,30670
17.7721,27573
17.7784,26789
17.7848,24899
17.7911,26733
17.7974,23535
17.8037,26987
17.81,23513
17.8163,25405
17.8226,24112
17.8289,23267
17.8352,23822
17.8415,24318
17.8478,23043
17.8542,23617
17.8605,26897
17.8668,28250
17.8731,27002
17.8794,29005
17.8857,28879
17.892,28397
17.8983,32352
17.9046,36492
17.9109,37793
17.9172,41371
17.9236,44005
17.9299,49252
17.9362,57271
17.9425,67112
17.9488,72215
17.9551,76166
17.9614,82202
17.9677,90614
17.974,90835
17.9803,93613
17.9866,93308
17.9929,91966
17.9993,86511
18.0055,81503
18.0119,73619
18.0182,72368
18.0245,65836
18.0308,65242
18.0371,61308
18.0434,61230
18.0497,59082
18.056,60919
18.0623,62918
18.0687,62785
18.075,73519
18.0813,84177
18.0876,90519
18.0939,99754
18.1002,108372
18.1065,108460
18.1128,106945
18.1191,95126
18.1254,84294
18.1317,75796
18.138,63284
18.1443,48366
18.1507,44666
18.157,36883
18.1633,34752
18.1696,31945
18.1759,32361
18.1822,31883
18.1885,29834
18.1948,32566
18.2011,31335
18.2074,31297
18.2138,33208
18.2201,34096
18.2264,37356
18.2327,41436
18.239,65147
18.2453,101539
18.2516,212459
18.2579,414042
18.2642,720216
18.2705,1189610
18.2768,1795255
18.2831,2573925
18.2895,3474327
18.2958,4464443
18.3021,5599283
18.3084,6863164
18.3147,8217964
18.321,9665076
18.3273,11222901
18.3336,12678095
18.3399,14222933
18.3462,16275508
18.3525,18629474
18.3588,19970960
18.3652,21541144
18.3714,22222476
18.3778,19734876
18.3841,13400539
18.3904,6556151
18.3967,2765715
18.403,1285282
18.4093,804762
18.4156,710635
18.4219,775890
18.4282,867676
18.4346,1018624
18.4409,1188031
18.4472,1327584
18.4535,1456187
18.4598,1554619
18.4661,1475274
18.4724,1316497
18.4787,1019537
18.485,734885
18.4913,497429
18.4976,327466
18.5039,221141
18.5102,166768
18.5166,138462
18.5229,122763
18.5292,116457
18.5355,116601
18.5418,110954
18.5481,114804
18.5544,111384
18.5607,110205
18.567,110109
18.5733,106046
18.5797,100473
18.586,93242
18.5923,81971
18.5986,72046
18.6049,67699
18.6112,61731
18.6175,59620
18.6238,56526
18.6301,54135
18.6364,50957
18.6427,52525
18.649,49118
18.6554,43988
18.6617,43786
18.668,48450
18.6743,48634
18.6806,48364
18.6869,48278
18.6932,58105
18.6995,64365
18.7058,81270
18.7121,105247
18.7184,134319
18.7248,167373
18.7311,209187
18.7374,251681
18.7437,300705
18.75,359644
18.7563,429213
18.7626,505062
18.7689,564844
18.7752,605546
18.7815,603465
18.7878,549616
18.7941,458432
18.8005,345051
18.8068,238299
18.8131,162187
18.8194,118434
18.8257,93807
18.832,81853
18.8383,80385
18.8446,76087
18.8509,72314
18.8572,65678
18.8635,60314
18.8698,54143
18.8762,50635
18.8825,46692
18.8888,46801
18.8951,46293
18.9014,46324
18.9077,44507
18.914,40650
18.9203,39345
18.9266,40269
18.9329,39119
18.9392,39483
18.9456,43052
18.9519,40253
18.9582,40995
18.9645,41026
18.9708,38417
18.9771,37545
18.9834,32530
18.9897,30183
18.996,30226
19.0023,27321
19.0086,26590
19.0149,25071
19.0213,28281
19.0276,27934
19.0339,28470
19.0402,30470
19.0465,29414
19.0528,31439
19.0591,31640
19.0654,31031
19.0717,31777
19.078,34577
19.0843,34175
19.0907,32044
19.097,32876
19.1033,36074
19.1096,31532
19.1159,35289
19.1222,34016
19.1285,36915
19.1348,35748
19.1411,40000
19.1474,41594
19.1537,44394
19.16,44425
19.1664,47749
19.1727,46264
19.179,47726
19.1853,48298
19.1916,48288
19.1979,51044
19.2042,51091
19.2105,53355
19.2168,57196
19.2231,54483
19.2294,52198
19.2357,50051
19.2421,48692
19.2484,49669
19.2547,52701
19.261,56916
19.2673,67043
19.2736,92345
19.2799,112082
19.2862,137203
19.2925,172818
19.2988,216097
19.3051,269329
19.3115,321182
19.3178,380983
19.3241,421769
19.3304,423525
19.3367,399382
19.343,348604
19.3493,275699
19.3556,217760
19.3619,176217
19.3682,140496
19.3745,130371
19.3808,122115
19.3872,110700
19.3935,108210
19.3998,99695
19.4061,96622
19.4124,93489
19.4187,87750
19.425,81844
19.4313,77041
19.4376,72472
19.4439,71620
19.4502,66354
19.4566,65659
19.4629,66244
19.4692,67047
19.4755,70660
19.4818,71643
19.4881,75243
19.4944,75627
19.5007,79660
19.507,77820
19.5133,79691
19.5196,83442
19.5259,85147
19.5323,82365
19.5386,79293
19.5449,79796
19.5512,76829
19.5575,66836
19.5638,62841
19.5701,56865
19.5764,49432
19.5827,43438
19.589,36390
19.5953,37397
19.6016,33922
19.608,32164
19.6143,37174
19.6206,34996
19.6269,34323
19.6332,32728
19.6395,33546
19.6458,31918
19.6521,36057
19.6584,36021
19.6647,40471
19.671,45809
19.6774,56197
19.6837,71376
19.69,87818
19.6963,110978
19.7026,128725
19.7089,155175
19.7152,187219
19.7215,218972
19.7278,273393
19.7341,310537
19.7404,350647
19.7467,382692
19.7531,409580
19.7594,413020
19.7657,382012
19.772,339043
19.7783,265587
19.7846,192889
19.7909,139241
19.7972,93887
19.8035,69102
19.8098,54909
19.8161,42855
19.8225,36085
19.8287,37656
19.8351,35008
19.8414,37630
19.8477,37562
19.854,34919
19.8603,35678
19.8666,36899
19.8729,35797
19.8792,38784
19.8855,34801
19.8918,34813
19.8982,39673
19.9045,40560
19.9108,39264
19.9171,45334
19.9234,47798
19.9297,50686
19.936,51110
19.9423,55895
19.9486,55978
19.9549,58160
19.9612,58629
19.9675,58667
19.9739,58328
19.9802,57159
19.9865,56735
19.9928,53305
19.9991,51452
20.0054,55270
20.0117,57132
20.018,73640
20.0243,109408
20.0306,168424
20.0369,247560
20.0433,385017
20.0496,532921
20.0559,689865
20.0622,896286
20.0685,1126778
20.0748,1331975
20.0811,1646981
20.0874,2100075
20.0937,2612098
20.1,3141901
20.1063,3589265
20.1127,4016622
20.119,4399856
20.1253,4363701
20.1316,3795753
20.1379,2985682
20.1442,2059155
20.1505,1372140
20.1568,1036742
20.1631,860334
20.1694,764818
20.1757,720665
20.182,710199
20.1884,666611
20.1946,633262
20.201,560444
20.2073,488353
20.2136,418116
20.2199,361615
20.2262,309253
20.2325,278082
20.2388,255882
20.2451,236091
20.2514,220589
20.2577,207155
20.2641,202603
20.2704,203053
20.2767,197561
20.283,201727
20.2893,187480
20.2956,184700
20.3019,190092
20.3082,185657
20.3145,183450
20.3208,177137
20.3271,178385
20.3335,172046
20.3398,171604
20.3461,163221
20.3524,144487
20.3587,136787
20.365,125930
20.3713,115096
20.3776,105695
20.3839,100490
20.3902,99606
20.3965,96655
20.4028,100647
20.4092,105058
20.4155,101247
20.4218,104902
20.4281,107013
20.4344,118236
20.4407,120008
20.447,122076
20.4533,127170
20.4596,142642
20.4659,146035
20.4722,142283
20.4786,147330
20.4849,146800
20.4912,132715
20.4975,119891
20.5038,117359
20.5101,100327
20.5164,88711
20.5227,81261
20.529,75126
20.5353,71954
20.5416,65766
20.5479,66142
20.5543,62559
20.5605,67087
20.5669,77409
20.5732,97266
20.5795,115885
20.5858,144508
20.5921,174495
20.5984,198010
20.6047,234423
20.611,266039
20.6173,309146
20.6236,362307
20.63,419299
20.6363,473606
20.6426,555057
20.6489,613903
20.6552,603568
20.6615,575935
20.6678,496250
20.6741,392513
20.6804,285254
20.6867,202371
20.693,143562
20.6994,103495
20.7057,84434
20.712,68966
20.7183,69970
20.7246,64896
20.7309,65191
20.7372,67194
20.7435,71758
20.7498,80693
20.7561,89446
20.7624,97959
20.7687,107093
20.7751,118042
20.7814,134337
20.7877,149696
20.794,170952
20.8003,187601
20.8066,221947
20.8129,250082
20.8192,272968
20.8255,256314
20.8318,243588
20.8381,213646
20.8445,170004
20.8508,125740
20.8571,89750
20.8634,69144
20.8697,53341
20.876,47692
20.8823,42627
20.8886,43908
20.8949,47072
20.9012,50318
20.9075,52261
20.9138,53405
20.9202,48324
20.9265,53277
20.9328,51477
20.9391,53875
20.9454,61157
20.9517,59976
20.958,66312
20.9643,71006
20.9706,69803
20.9769,71539
20.9832,66942
20.9896,61830
20.9959,56511
21.0022,50142
21.0085,45065
21.0148,44126
21.0211,46149
21.0274,47915
21.0337,52989
21.04,57029
21.0463,62191
21.0526,66416
21.0589,77426
21.0653,89873
21.0716,93172
21.0779,100944
21.0842,103091
21.0905,109914
21.0968,116978
21.1031,114824
21.1094,118634
21.1157,128882
21.122,126102
21.1283,130834
21.1346,128806
21.141,125178
21.1473,121823
21.1536,117513
21.1599,118165
21.1662,127138
21.1725,147510
21.1788,166669
21.1851,195272
21.1914,226377
21.1977,263934
21.204,299577
21.2104,354257
21.2167,416024
21.223,496917
21.2293,588392
21.2356,666201
21.2419,717647
21.2482,775985
21.2545,761279
21.2608,666225
21.2671,564935
21.2734,447133
21.2797,311549
21.286,208907
21.2924,143000
21.2987,91912
21.305,72020
21.3113,66892
21.3176,63843
21.3239,68247
21.3302,86648
21.3365,102388
21.3428,129639
21.3491,163048
21.3555,190126
21.3618,224208
21.3681,252124
21.3744,280280
21.3807,310506
21.387,352606
21.3933,381650
21.3996,445781
21.4059,535796
21.4122,630752
21.4185,722964
21.4248,811416
21.4312,859945
21.4375,866821
21.4438,834266
21.4501,751833
21.4564,641372
21.4627,535453
21.469,442998
21.4753,357020
21.4816,293674
21.4879,248424
21.4942,212440
21.5006,204267
21.5069,199086
21.5132,198670
21.5195,196565
21.5258,192965
21.5321,191228
21.5384,191488
21.5447,185730
21.551,186016
21.5573,200862
21.5636,210118
21.5699,219428
21.5763,228261
21.5826,232903
21.5889,228631
21.5952,217137
21.6015,189449
21.6078,157893
21.6141,128984
21.6204,111021
21.6267,93117
21.633,74846
21.6393,66463
21.6456,52507
21.6519,52084
21.6583,50738
21.6646,44318
21.6709,42747
21.6772,41340
21.6835,37756
21.6898,35942
21.6961,34916
21.7024,38487
21.7087,35320
21.715,34171
21.7214,35336
21.7277,37180
21.734,36138
21.7403,37154
21.7466,38325
21.7529,42972
21.7592,49527
21.7655,53670
21.7718,60822
21.7781,66105
21.7844,70532
21.7907,82167
21.7971,93597
21.8034,98173
21.8097,112156
21.816,124971
21.8223,133722
21.8286,143196
21.8349,154162
21.8412,167920
21.8475,156702
21.8538,147501
21.8601,128820
21.8665,102472
21.8728,81103
21.8791,60975
21.8854,50089
21.8917,36379
21.898,30396
21.9043,28814
21.9106,29646
21.9169,26521
21.9232,27214
21.9295,27568
21.9358,25873
21.9422,29867
21.9485,29802
21.9548,33748
21.9611,31843
21.9674,36202
21.9737,41417
21.98,40384
21.9863,48002
21.9926,55259
21.9989,59840
22.0052,70012
22.0116,74741
22.0179,76780
22.0242,76169
22.0305,76118
22.0368,73146
22.0431,76237
22.0494,83393
22.0557,86632
22.062,93082
22.0683,99676
22.0746,107572
22.0809,112493
22.0873,106918
22.0936,92034
22.0999,76802
22.1062,67858
22.1125,55619
22.1188,50696
22.1251,54687
22.1314,56544
22.1377,61742
22.144,69106
22.1503,77998
22.1566,85715
22.163,103064
22.1693,114909
22.1756,141557
22.1819,155799
22.1882,174389
22.1945,200712
22.2008,207656
22.2071,204316
22.2134,178121
22.2197,143194
22.226,119636
22.2324,92995
22.2387,73094
22.245,64224
22.2513,56930
22.2576,49491
22.2639,45757
22.2702,47541
22.2765,43584
22.2828,48286
22.2891,46201
22.2954,45191
22.3017,40722
22.3081,38072
22.3144,35323
22.3207,29220
22.327,27619
22.3333,24408
22.3396,25052
22.3459,22880
22.3522,23926
22.3585,24476
22.3648,25953
22.3711,26797
22.3775,27323
22.3838,28153
22.3901,31684
22.3964,30932
22.4027,31337
22.409,36034
22.4153,39267
22.4216,45958
22.4279,48951
22.4342,57202
22.4405,68821
22.4468,72952
22.4532,88844
22.4595,95705
22.4658,106744
22.4721,117399
22.4784,128382
22.4847,145662
22.491,171767
22.4973,203847
22.5036,250395
22.5099,317081
22.5162,387602
22.5225,460253
22.5289,533919
22.5352,622562
22.5415,718946
22.5478,828732
22.5541,960175
22.5604,1126903
22.5667,1350300
22.573,1646246
22.5793,1890899
22.5856,2164364
22.5919,2412897
22.5983,2493583
22.6046,2357980
22.6109,1979250
22.6172,1508463
22.6235,1020313
22.6298,646276
22.6361,411310
22.6424,255728
22.6487,178048
22.655,137464
22.6613,120031
22.6676,108164
22.674,101864
22.6803,99490
22.6866,101064
22.6929,109356
22.6992,111927
22.7055,123372
22.7118,126573
22.7181,126544
22.7244,127537
22.7307,120267
22.737,116157
22.7434,108968
22.7497,103597
22.756,94811
22.7623,91742
22.7686,89639
22.7749,89082
22.7812,89870
22.7875,95643
22.7938,104000
22.8001,105481
22.8064,108034
22.8127,111568
22.8191,110599
22.8254,106601
22.8317,98453
22.838,82596
22.8443,84312
22.8506,79794
22.8569,88999
22.8632,104594
22.8695,132387
22.8758,160770
22.8821,201286
22.8885,239103
22.8948,275019
22.9011,320289
22.9074,362370
22.9137,421656
22.92,507145
22.9263,606075
22.9326,707585
22.9389,822629
22.9452,903404
22.9515,941755
22.9578,916408
22.9642,818689
22.9705,641072
22.9768,470234
22.9831,325087
22.9894,209342
22.9957,137400
23.002,103881
23.0083,85517
23.0146,77654
23.0209,72502
23.0272,67385
23.0335,55427
23.0399,49161
23.0462,44747
23.0525,40547
23.0588,34229
23.0651,35070
23.0714,30699
23.0777,29525
23.084,27435
23.0903,26447
23.0966,26725
23.1029,26816
23.1092,27769
23.1156,25359
23.1219,25257
23.1282,23468
23.1345,23177
23.1408,22535
23.1471,23220
23.1534,23041
23.1597,23208
23.166,23826
23.1723,24194
23.1786,24440
23.185,22749
23.1913,23341
23.1976,23419
23.2039,22572
23.2102,24442
23.2165,24977
23.2228,25251
23.2291,26284
23.2354,24149
23.2417,22829
23.248,23015
23.2544,23238
23.2607,24625
23.267,22212
23.2733,21891
23.2796,21460
23.2859,21913
23.2922,19589
23.2985,20927
23.3048,19158
23.3111,18623
23.3174,21591
23.3237,22503
23.3301,24564
23.3363,24654
23.3427,25257
23.349,27221
23.3553,29326
23.3616,28865
23.3679,28398
23.3742,31512
23.3805,28840
23.3868,31478
23.3931,31692
23.3995,29658
23.4058,27938
23.4121,28627
23.4184,26632
23.4247,26123
23.431,26411
23.4373,27473
23.4436,26350
23.4499,27091
23.4562,26658
23.4625,27382
23.4688,26788
23.4752,27242
23.4815,25656
23.4878,27386
23.4941,28800
23.5004,25582
23.5067,26133
23.513,27025
23.5193,26562
23.5256,27948
23.5319,28697
23.5382,27918
23.5445,31710
23.5509,31288
23.5572,33660
23.5635,33912
23.5698,33659
23.5761,34859
23.5824,29475
23.5887,26758
23.595,25338
23.6013,25007
23.6076,22251
23.6139,23816
23.6203,22724
23.6266,23534
23.6329,22017
23.6392,23587
23.6455,23640
23.6518,24695
23.6581,24862
23.6644,26124
23.6707,28619
23.677,26270
23.6833,27890
23.6896,28349
23.696,30025
23.7022,34056
23.7086,33969
23.7149,32582
23.7212,30830
23.7275,31833
23.7338,32060
23.7401,28644
23.7464,31721
23.7527,31211
23.759,32680
23.7654,35155
23.7717,34834
23.778,37778
23.7843,38960
23.7906,37841
23.7969,37645
23.8032,37276
23.8095,36477
23.8158,35573
23.8221,36068
23.8284,35466
23.8347,32498
23.8411,32529
23.8474,30117
23.8537,28494
23.86,26286
23.8663,23995
23.8726,24415
23.8789,23278
23.8852,23338
23.8915,23065
23.8978,22017
23.9041,20276
23.9105,20030
23.9168,19760
23.9231,19681
23.9294,18315
23.9357,19877
23.942,21085
23.9483,19883
23.9546,23561
23.9609,22789
23.9672,23156
23.9735,24485
23.9798,24815
23.9862,24781
23.9925,24897
23.9988,25462
24.0051,28560
24.0114,32919
24.0177,33645
24.024,37042
24.0303,43562
24.0366,49690
24.0429,51219
24.0492,57348
24.0555,62013
24.0619,65017
24.0682,69972
24.0745,77065
24.0808,85393
24.0871,85606
24.0934,89658
24.0997,84358
24.106,73452
24.1123,62500
24.1186,51857
24.1249,42500
24.1313,34184
24.1376,29968
24.1439,27672
24.1502,26961
24.1565,33703
24.1628,40260
24.1691,45634
24.1754,48874
24.1817,61101
24.188,76133
24.1943,86329
24.2006,107793
24.207,134028
24.2133,159101
24.2196,192818
24.2259,239852
24.2322,290413
24.2385,321627
24.2448,342179
24.2511,341091
24.2574,321159
24.2637,303403
24.27,275148
24.2764,260325
24.2827,288543
24.289,286556
24.2953,282376
24.3016,268019
24.3079,248839
24.3142,198109
24.3205,155574
24.3268,117558
24.3331,89180
24.3394,70897
24.3457,53807
24.3521,48426
24.3584,44348
24.3647,37622
24.371,36684
24.3773,37866
24.3836,35620
24.3899,39275
24.3962,38427
24.4025,40214
24.4088,38931
24.4151,40714
24.4214,42680
24.4278,49098
24.4341,54017
24.4404,63872
24.4467,74728
24.453,84016
24.4593,88207
24.4656,94439
24.4719,88719
24.4782,76059
24.4845,60896
24.4908,48572
24.4972,39456
24.5035,28829
24.5098,28567
24.5161,27577
24.5224,30268
24.5287,34576
24.535,35333
24.5413,38006
24.5476,41901
24.5539,47359
24.5602,50650
24.5665,52176
24.5729,54685
24.5792,55750
24.5855,55491
24.5918,52959
24.5981,56097
24.6044,54111
24.6107,53500
24.617,54641
24.6233,60051
24.6296,60095
24.6359,63057
24.6423,62492
24.6486,56622
24.6549,57588
24.6612,60157
24.6675,62734
24.6738,59032
24.6801,57793
24.6864,62452
24.6927,63816
24.699,66131
24.7053,71219
24.7116,78166
24.718,86197
24.7243,94914
24.7306,103880
24.7369,108707
24.7432,107361
24.7495,101170
24.7558,90812
24.7621,79650
24.7684,62669
24.7747,52016
24.781,43801
24.7874,37266
24.7937,40106
24.8,37048
24.8063,34549
24.8126,31637
24.8189,36021
24.8252,36057
24.8315,37855
24.8378,40444
24.8441,41015
24.8504,40369
24.8567,42430
24.8631,40052
24.8694,36053
24.8757,31693
24.882,26981
24.8883,21519
24.8946,20979
24.9009,19986
24.9072,16550
24.9135,16109
24.9198,14895
24.9261,16079
24.9324,16910
24.9388,16492
24.9451,17828
24.9514,18258
24.9577,17763
24.964,16658
24.9703,19983
24.9766,20620
24.9829,18393
24.9892,20437
24.9955,23293
25.0018,21293
25.0082,22180
25.0145,23645
25.0208,26073
25.0271,23555
25.0334,21745
25.0397,22480
25.046,20845
25.0523,18478
25.0586,18848
25.0649,19514
25.0712,17037
25.0775,16797
25.0839,19581
25.0902,18675
25.0965,18685
25.1028,17697
25.1091,19996
25.1154,18336
25.1217,20504
25.128,17229
25.1343,18398
25.1406,18714
25.1469,17454
25.1533,16134
25.1596,18013
25.1659,20312
25.1722,19904
25.1785,19310
25.1848,20342
25.1911,23168
25.1974,22400
25.2037,22617
25.21,24285
25.2163,25271
25.2226,25228
25.229,26688
25.2353,25461
25.2416,25176
25.2479,24756
25.2542,21633
25.2605,21290
25.2668,22063
25.2731,22286
25.2794,21257
25.2857,20962
25.292,24042
25.2984,23125
25.3047,23700
25.311,26914
25.3173,24178
25.3236,25201
25.3299,23900
25.3362,26549
25.3425,26648
25.3488,21850
25.3551,23450
25.3614,22351
25.3677,19823
25.3741,20984
25.3804,20110
25.3867,16770
25.393,18717
25.3993,19325
25.4056,17058
25.4119,20670
25.4182,22840
25.4245,24006
25.4308,29728
25.4371,30669
25.4434,34947
25.4498,38455
25.4561,43312
25.4624,48148
25.4687,55298
25.475,64221
25.4813,69897
25.4876,90553
25.4939,99259
25.5002,108790
25.5065,109924
25.5128,96847
25.5192,84497
25.5255,65609
25.5318,49670
25.5381,36850
25.5444,27616
25.5507,22825
25.557,23409
25.5633,20050
25.5696,21865
25.5759,19456
25.5822,19083
25.5885,19087
25.5949,20129
25.6012,23935
25.6075,25457
25.6138,29663
25.6201,33956
25.6264,36478
25.6327,40645
25.639,46366
25.6453,47629
25.6516,60231
25.6579,78747
25.6643,93262
25.6706,104203
25.6769,125655
25.6832,136726
25.6895,137440
25.6958,118980
25.7021,95471
25.7084,67962
25.7147,47060
25.721,32509
25.7273,26924
25.7336,22269
25.74,19846
25.7463,19305
25.7526,18987
25.7589,18061
25.7652,18935
25.7715,18558
25.7778,17655
25.7841,18435
25.7904,16935
25.7967,18662
25.803,18272
25.8093,18886
25.8157,16577
25.822,18308
25.8283,21764
25.8346,24730
25.8409,25605
25.8472,26794
25.8535,28220
25.8598,25327
25.8661,25935
25.8724,29199
25.8787,28234
25.8851,32500
25.8914,37251
25.8977,40355
25.904,40965
25.9103,39667
25.9166,42697
25.9229,45548
25.9292,46329
25.9355,56947
25.9418,66096
25.9481,81686
25.9544,97147
25.9608,116021
25.9671,152998
25.9734,188551
25.9797,200015
25.986,201346
25.9923,187850
25.9986,162117
26.0049,132364
26.0112,115529
26.0175,101768
26.0238,88056
26.0302,70062
26.0365,51705
26.0428,39005
26.0491,29252
26.0554,23891
26.0617,20004
26.068,19308
26.0743,17340
26.0806,15836
26.0869,16604
26.0932,15414
26.0995,17716
26.1059,18133
26.1122,18192
26.1185,17770
26.1248,17191
26.1311,22751
26.1374,21344
26.1437,21392
26.15,23351
26.1563,23138
26.1626,22818
26.1689,23069
26.1753,19001
26.1816,20210
26.1879,17008
26.1942,19216
26.2005,16217
26.2068,20646
26.2131,20950
26.2194,23285
26.2257,24044
26.232,24573
26.2383,22347
26.2446,20133
26.251,17995
26.2573,17515
26.2636,16830
26.2699,18487
26.2762,18884
26.2825,20887
26.2888,22921
26.2951,24985
26.3014,26910
26.3077,26436
26.314,27978
26.3203,31656
26.3267,29091
26.333,27104
26.3393,26657
26.3456,25749
26.3519,25724
26.3582,26545
26.3645,29001
26.3708,30724
26.3771,34221
26.3834,33973
26.3897,37104
26.3961,39397
26.4024,40139
26.4087,40083
26.415,35537
26.4213,32435
26.4276,28346
26.4339,31443
26.4402,26431
26.4465,31470
26.4528,31728
26.4591,36737
26.4654,43582
26.4718,49179
26.4781,62256
26.4844,83036
26.4907,104494
26.497,119105
26.5033,114119
26.5096,94683
26.5159,63973
26.5222,42409
26.5285,25983
26.5348,23954
26.5412,22231
26.5475,22970
26.5538,29381
26.5601,26381
26.5664,29377
26.5727,34418
26.579,40077
26.5853,44979
26.5916,56821
26.5979,79957
26.6042,91388
26.6105,110598
26.6169,101885
26.6232,79702
26.6295,54187
26.6358,41700
26.6421,32567
26.6484,31218
26.6547,35480
26.661,38677
26.6673,40550
26.6736,46727
26.6799,55913
26.6863,67254
26.6926,76975
26.6989,84688
26.7052,92557
26.7115,96182
26.7178,91089
26.7241,83971
26.7304,88162
26.7367,102192
26.743,137660
26.7493,156688
26.7556,159117
26.762,136266
26.7683,97233
26.7746,65582
26.7809,48083
26.7872,40684
26.7935,39982
26.7998,44432
26.8061,49593
26.8124,59650
26.8187,77276
26.825,89778
26.8313,103615
26.8377,120381
26.844,154415
26.8503,238842
26.8566,387196
26.8629,627301
26.8692,872390
26.8755,979614
26.8818,844098
26.8881,568489
26.8944,326297
26.9007,171153
26.9071,103076
26.9134,72213
26.9197,62027
26.926,59981
26.9323,48212
26.9386,54334
26.9449,49782
26.9512,57264
26.9575,63115
26.9638,69383
26.9701,71340
26.9764,66660
26.9828,59752
26.9891,63660
26.9954,74533
27.0017,85199
27.008,93680
27.0143,89716
27.0206,69264
27.0269,47218
27.0332,34211
27.0395,26306
27.0458,21867
27.0522,25004
27.0585,25052
27.0648,24723
27.0711,24442
27.0774,23889
27.0837,25645
27.09,28920
27.0963,25272
27.1026,26897
27.1089,28521
27.1152,29674
27.1215,31173
27.1279,27448
27.1342,28389
27.1405,28325
27.1468,28073
27.1531,31430
27.1594,32417
27.1657,37666
27.172,39608
27.1783,39557
27.1846,34615
27.1909,32342
27.1973,29753
27.2036,24476
27.2099,26839
27.2162,31913
27.2225,35122
27.2288,41681
27.2351,43538
27.2414,42184
27.2477,42232
27.254,40888
27.2603,44998
27.2666,47623
27.273,53062
27.2793,62435
27.2856,72173
27.2919,93060
27.2982,111894
27.3045,126833
27.3108,111635
27.3171,80372
27.3234,47955
27.3297,35198
27.336,29924
27.3423,29947
27.3487,29450
27.355,28182
27.3613,27918
27.3676,25079
27.3739,24557
27.3802,20756
27.3865,19599
27.3928,18900
27.3991,21004
27.4054,21824
27.4117,25885
27.4181,27012
27.4244,29574
27.4307,30817
27.437,31840
27.4433,32492
27.4496,44141
27.4559,54704
27.4622,61874
27.4685,64036
27.4748,61098
27.4811,44818
27.4874,36164
27.4938,29334
27.5001,31394
27.5064,27705
27.5127,27782
27.519,32046
27.5253,36004
27.5316,43668
27.5379,51117
27.5442,55938
27.5505,47463
27.5568,41625
27.5632,30327
27.5695,28005
27.5758,23859
27.5821,25886
27.5884,29886
27.5947,38756
27.601,47114
27.6073,59067
27.6136,74312
27.6199,86208
27.6262,85346
27.6325,78203
27.6389,65606
27.6452,73044
27.6515,93049
27.6578,127108
27.6641,138616
27.6704,121470
27.6767,92323
27.683,63230
27.6893,45345
27.6956,37285
27.7019,32694
27.7082,29209
27.7146,27196
27.7209,25500
27.7272,24624
27.7335,26947
27.7398,28222
27.7461,33700
27.7524,46261
27.7587,59269
27.765,75833
27.7713,88996
27.7776,84922
27.784,77452
27.7903,62490
27.7966,55722
27.8029,43801
27.8092,37967
27.8155,33000
27.8218,26366
27.8281,22276
27.8344,18813
27.8407,18004
27.847,19100
27.8533,22623
27.8597,23532
27.866,28769
27.8723,35924
27.8786,46606
27.8849,66278
27.8912,86926
27.8975,114422
27.9038,138522
27.9101,189133
27.9164,259722
27.9227,423620
27.9291,703715
27.9354,1095986
27.9417,1376437
27.948,1271890
27.9543,913473
27.9606,529107
27.9669,319465
27.9732,190634
27.9795,111255
27.9858,68058
27.9921,40898
27.9984,33502
28.0048,30973
28.0111,28376
28.0174,28971
28.0237,33591
28.03,33012
28.0363,32385
28.0426,31331
28.0489,33950
28.0552,34854
28.0615,35619
28.0678,34761
28.0742,36505
28.0805,36408
28.0868,36656
28.0931,41915
28.0994,49635
28.1057,51009
28.112,47389
28.1183,41578
28.1246,38901
28.1309,41998
28.1372,49124
28.1435,50621
28.1499,48633
28.1562,49490
28.1625,49762
28.1688,55001
28.1751,63005
28.1814,81418
28.1877,134695
28.194,221694
28.2003,357561
28.2066,464581
28.2129,432972
28.2192,321605
28.2256,195980
28.2319,121622
28.2382,93883
28.2445,72930
28.2508,58938
28.2571,61596
28.2634,72984
28.2697,84837
28.276,84207
28.2823,76445
28.2886,70708
28.295,64914
28.3013,65908
28.3076,68534
28.3139,60887
28.3202,46928
28.3265,30553
28.3328,22130
28.3391,23225
28.3454,24953
28.3517,30340
28.358,43311
28.3643,56000
28.3707,56584
28.377,47487
28.3833,35740
28.3896,23695
28.3959,19517
28.4022,17291
28.4085,16217
28.4148,13672
28.4211,14974
28.4274,13655
28.4337,13957
28.4401,17674
28.4464,17149
28.4527,15535
28.459,18590
28.4653,16817
28.4716,20358
28.4779,22227
28.4842,29231
28.4905,40841
28.4968,57750
28.5031,67469
28.5094,67491
28.5158,55542
28.5221,41543
28.5284,36396
28.5347,23235
28.541,17498
28.5473,15142
28.5536,13370
28.5599,14091
28.5662,13858
28.5725,16467
28.5788,19178
28.5852,18341
28.5915,20388
28.5978,19503
28.6041,18024
28.6104,18361
28.6167,15891
28.623,14594
28.6293,14997
28.6356,14659
28.6419,13864
28.6482,13067
28.6545,14294
28.6609,14363
28.6672,12386
28.6735,13654
28.6798,11747
28.6861,12122
28.6924,12527
28.6987,13041
28.705,12367
28.7113,12623
28.7176,13356
28.7239,13829
28.7302,15805
28.7366,17860
28.7429,15982
28.7492,15809
28.7555,11819
28.7618,12065
28.7681,10351
28.7744,12331
28.7807,13274
28.787,13609
28.7933,13071
28.7996,13762
28.806,16451
28.8123,15412
28.8186,15225
28.8249,15136
28.8312,15851
28.8375,17421
28.8438,15827
28.8501,18767
28.8564,19111
28.8627,20422
28.869,21899
28.8753,21146
28.8817,20657
28.888,21253
28.8943,19905
28.9006,22417
28.9069,21397
28.9132,18852
28.9195,15671
28.9258,13864
28.9321,14686
28.9384,14421
28.9447,16637
28.9511,17843
28.9574,17721
28.9637,16298
28.97,15305
28.9763,16471
28.9826,14696
28.9889,14881
28.9952,15060
29.0015,14428
29.0078,13678
29.0141,16688
29.0204,14929
29.0268,15878
29.0331,17522
29.0394,15791
29.0457,16740
29.052,15718
29.0583,16962
29.0646,17258
29.0709,16761
29.0772,16055
29.0835,15699
29.0898,19533
29.0962,20815
29.1025,19477
29.1088,19905
29.1151,19839
29.1214,17643
29.1277,16699
29.134,17840
29.1403,17206
29.1466,17025
29.1529,15772
29.1592,15344
29.1655,14950
29.1719,13402
29.1782,16867
29.1845,18442
29.1908,21979
29.1971,20509
29.2034,21203
29.2097,21848
29.216,21332
29.2223,20626
29.2286,19213
29.2349,23549
29.2412,24651
29.2476,24623
29.2539,22600
29.2602,22106
29.2665,21641
29.2728,27821
29.2791,31210
29.2854,32624
29.2917,34153
29.298,32736
29.3043,27581
29.3106,31015
29.317,29038
29.3233,27835
29.3296,27688
29.3359,25232
29.3422,24140
29.3485,22340
29.3548,20550
29.3611,18193
29.3674,16555
29.3737,16458
29.38,15956
29.3863,16723
29.3927,17849
29.399,16990
29.4053,16326
29.4116,19224
29.4179,17285
29.4242,23445
29.4305,33686
29.4368,51310
29.4431,63327
29.4494,63227
29.4557,47958
29.4621,33835
29.4684,32840
29.4747,31638
29.481,36460
29.4873,43167
29.4936,62172
29.4999,95573
29.5062,135149
29.5125,198263
29.5188,234187
29.5251,216536
29.5314,142262
29.5378,77298
29.5441,42418
29.5504,30757
29.5567,26096
29.563,22742
29.5693,22761
29.5756,23507
29.5819,23455
29.5882,22734
29.5945,26639
29.6008,28927
29.6071,26305
29.6135,23451
29.6198,18637
29.6261,18381
29.6324,18543
29.6387,19673
29.645,22002
29.6513,27550
29.6576,35401
29.6639,46260
29.6702,58709
29.6765,69846
29.6829,65637
29.6892,62414
29.6955,65320
29.7018,73802
29.7081,67622
29.7144,53727
29.7207,37853
29.727,28170
29.7333,25827
29.7396,28084
29.7459,27265
29.7522,30212
29.7586,29694
29.7649,27223
29.7712,26594
29.7775,24130
29.7838,23329
29.7901,24588
29.7964,27958
29.8027,37173
29.809,51454
29.8153,65459
29.8216,73254
29.828,63348
29.8343,39607
29.8406,23987
29.8469,19648
29.8532,18015
29.8595,22444
29.8658,25221
29.8721,24507
29.8784,23807
29.8847,19935
29.891,17158
29.8973,20164
29.9037,25581
29.91,31701
29.9163,37542
29.9226,40616
29.9289,35590
29.9352,37372
29.9415,43126
29.9478,62065
29.9541,79837
29.9604,95465
29.9667,109430
29.9731,113349
29.9794,91756
29.9857,55112
29.992,34017
29.9983,31806
30.0046,35816
30.0109,39362
30.0172,35730
30.0235,30009
30.0298,23712
30.0361,22679
30.0424,21671
30.0488,25100
30.0551,30180
30.0614,38440
30.0677,41388
30.074,38460
30.0803,35232
30.0866,30339
30.0929,33619
30.0992,33636
30.1055,35854
30.1118,39723
30.1181,40590
30.1245,37051
30.1308,32446
30.1371,27950
30.1434,32648
30.1497,39304
30.156,51236
30.1623,64628
30.1686,62462
30.1749,52078
30.1812,48940
30.1875,48203
30.1939,45509
30.2002,43074
30.2065,39520
30.2128,34434
30.2191,33245
30.2254,32893
30.2317,29216
30.238,33844
30.2443,38320
30.2506,43620
30.2569,49784
30.2632,43627
30.2696,33455
30.2759,27543
30.2822,27755
30.2885,35816
30.2948,49656
30.3011,60855
30.3074,79651
30.3137,90206
30.32,109912
30.3263,181785
30.3326,366035
30.339,911849
30.3453,2058513
30.3516,4471386
30.3579,8570800
30.3642,10185474
30.3705,6308456
30.3768,2272703
30.3831,788886
30.3894,301092
30.3957,162481
30.402,122549
30.4083,104988
30.4147,91975
30.421,81385
30.4273,71561
30.4336,58444
30.4399,48796
30.4462,43277
30.4525,49293
30.4588,74912
30.4651,117424
30.4714,140321
30.4777,120322
30.4841,79519
30.4904,51839
30.4967,35056
30.503,33792
30.5093,37700
30.5156,56361
30.5219,91623
30.5282,134871
30.5345,157860
30.5408,121542
30.5471,78307
30.5534,48402
30.5598,37490
30.5661,36429
30.5724,44007
30.5787,46883
30.585,46020
30.5913,41232
30.5976,34869
30.6039,36259
30.6102,30631
30.6165,25246
30.6228,20419
30.6291,22897
30.6355,21695
30.6418,22407
30.6481,21947
30.6544,22334
30.6607,25916
30.667,30185
30.6733,29408
30.6796,27258
30.6859,23448
30.6922,25509
30.6985,28961
30.7049,35843
30.7112,41397
30.7175,41163
30.7238,35831
30.7301,24911
30.7364,18138
30.7427,16357
30.749,15140
30.7553,14489
30.7616,15528
30.7679,14564
30.7742,17373
30.7806,15495
30.7869,16331
30.7932,14578
30.7995,14679
30.8058,14688
30.8121,14406
30.8184,14463
30.8247,12879
30.831,14544
30.8373,14126
30.8436,12548
30.85,14929
30.8563,18139
30.8626,18994
30.8689,19545
30.8752,17283
30.8815,17196
30.8878,15057
30.8941,14210
30.9004,14557
30.9067,16402
30.913,19645
30.9193,23061
30.9257,20672
30.932,18387
30.9383,14261
30.9446,14164
30.9509,11724
30.9572,12167
30.9635,9759
30.9698,11429
30.9761,12304
30.9824,11113
30.9887,14016
30.995,11975
31.0014,10683
31.0077,10647
31.014,12139
31.0203,12515
31.0266,9802
31.0329,12665
31.0392,11417
31.0455,12086
31.0518,10785
31.0581,11880
31.0644,10160
31.0708,9972
31.0771,8795
31.0834,9603
31.0897,9721
31.096,11326
31.1023,13204
31.1086,16744
31.1149,24964
31.1212,25427
31.1275,21709
31.1338,17307
31.1401,15107
31.1465,13937
31.1528,13327
31.1591,10915
31.1654,10833
31.1717,11084
31.178,10134
31.1843,10448
31.1906,9901
31.1969,10096
31.2032,12056
31.2095,12803
31.2159,11201
31.2222,10731
31.2285,11611
31.2348,10648
31.2411,12756
31.2474,10930
31.2537,11450
31.26,12483
31.2663,13089
31.2726,12464
31.2789,13017
31.2852,12440
31.2916,10898
31.2979,10653
31.3042,11914
31.3105,12625
31.3168,12981
31.3231,14853
31.3294,21349
31.3357,26908
31.342,33019
31.3483,35280
31.3546,34090
31.361,28624
31.3673,22765
31.3736,20388
31.3799,17195
31.3862,13895
31.3925,15200
31.3988,21216
31.4051,24374
31.4114,29287
31.4177,27806
31.424,22631
31.4303,20256
31.4367,20582
31.443,20474
31.4493,18804
31.4556,15159
31.4619,15164
31.4682,11889
31.4745,14963
31.4808,15171
31.4871,22239
31.4934,33342
31.4997,43259
31.506,40846
31.5124,28459
31.5187,22093
31.525,18768
31.5313,23588
31.5376,24934
31.5439,24320
31.5502,21766
31.5565,26540
31.5628,27009
31.5691,28527
31.5754,24875
31.5818,22747
31.5881,21861
31.5944,24448
31.6007,27739
31.607,27095
31.6133,27896
31.6196,25777
31.6259,22303
31.6322,18891
31.6385,13841
31.6448,12102
31.6511,12074
31.6575,11975
31.6638,13422
31.6701,13294
31.6764,12803
31.6827,10982
31.689,11947
31.6953,13082
31.7016,13922
31.7079,14421
31.7142,13333
31.7205,11400
31.7269,14867
31.7332,19626
31.7395,28157
31.7458,37600
31.7521,41182
31.7584,32082
31.7647,20421
31.771,13318
31.7773,12139
31.7836,14164
31.7899,16272
31.7962,18426
31.8026,21167
31.8089,22223
31.8152,22982
31.8215,27450
31.8278,36542
31.8341,49369
31.8404,75118
31.8467,86827
31.853,69100
31.8593,41154
31.8656,24555
31.872,22769
31.8783,23348
31.8846,24036
31.8909,27212
31.8972,27432
31.9035,27704
31.9098,30632
31.9161,27213
31.9224,23290
31.9287,20899
31.935,21311
31.9413,21741
31.9477,19473
31.954,23855
31.9603,25910
31.9666,28310
31.9729,31715
31.9792,45145
31.9855,53096
31.9918,47790
31.9981,49081
32.0044,63041
32.0107,91002
32.017,110149
32.0234,107212
32.0296,85393
32.036,60412
32.0423,51909
32.0486,50175
32.0549,42666
32.0612,31856
32.0675,26296
32.0738,22591
32.0801,22006
32.0864,23126
32.0928,20689
32.099,20309
32.1054,20106
32.1117,23888
32.118,28457
32.1243,26745
32.1306,24734
32.1369,25110
32.1432,28094
32.1495,26312
32.1558,31295
32.1621,30351
32.1685,26004
32.1748,19705
32.1811,18635
32.1874,22881
32.1937,25560
32.2,31749
32.2063,33350
32.2126,30024
32.2189,25165
32.2252,19656
32.2315,15769
32.2379,15474
32.2441,14737
32.2505,15137
32.2568,14712
32.2631,16401
32.2694,16153
32.2757,14435
32.282,16317
32.2883,16046
32.2946,21775
32.3009,25089
32.3072,27185
32.3135,24476
32.3199,22408
32.3262,20385
32.3325,15894
32.3388,15466
32.3451,12746
32.3514,16336
32.3577,14309
32.364,14836
32.3703,16605
32.3766,16553
32.383,17313
32.3892,18614
32.3956,18085
32.4019,18101
32.4082,15958
32.4145,15586
32.4208,15694
32.4271,14685
32.4334,15606
32.4397,15133
32.446,16747
32.4523,15706
32.4586,13508
32.465,12632
32.4713,11536
32.4776,11139
32.4839,15159
32.4902,12725
32.4965,14132
32.5028,14266
32.5091,19025
32.5154,20896
32.5217,19070
32.528,16989
32.5344,13497
32.5406,12344
32.547,13475
32.5533,15918
32.5596,14892
32.5659,17411
32.5722,16207
32.5785,12325
32.5848,12146
32.5911,11466
32.5974,11170
32.6037,10318
32.6101,10766
32.6164,10087
32.6227,11164
32.629,10177
32.6353,10837
32.6416,11121
32.6479,10082
32.6542,9902
32.6605,11446
32.6668,10527
32.6731,8326
32.6795,9810
32.6857,9878
32.6921,8975
32.6984,11273
32.7047,10564
32.711,9016
32.7173,7920
32.7236,8602
32.7299,9528
32.7362,8241
32.7425,8795
32.7488,9673
32.7552,8700
32.7615,8735
32.7678,10237
32.7741,10989
32.7804,11110
32.7867,11763
32.793,10366
32.7993,9615
32.8056,10210
32.8119,9929
32.8182,9641
32.8246,8860
32.8308,9342
32.8372,9726
32.8435,9351
32.8498,9456
32.8561,10553
32.8624,11964
32.8687,11111
32.875,9279
32.8813,10358
32.8876,12277
32.8939,12349
32.9003,13805
32.9066,11316
32.9129,11586
32.9192,18726
32.9255,28409
32.9318,44373
32.9381,44243
32.9444,33148
32.9507,23551
32.957,17028
32.9633,15029
32.9697,12107
32.9759,12636
32.9823,11900
32.9886,12977
32.9949,14112
33.0012,14908
33.0075,15767
33.0138,15353
33.0201,13089
33.0264,14176
33.0327,12910
33.039,13480
33.0453,11514
33.0517,12799
33.058,13148
33.0643,13810
33.0706,14089
33.0769,16840
33.0832,20841
33.0895,23146
33.0958,23521
33.1021,20225
33.1084,15403
33.1148,13603
33.121,12553
33.1274,15795
33.1337,16157
33.14,17916
33.1463,17698
33.1526,15126
33.1589,13656
33.1652,12677
33.1715,14012
33.1778,12033
33.1841,12937
33.1904,12286
33.1968,11800
33.2031,11937
33.2094,12215
33.2157,12847
33.222,16986
33.2283,15144
33.2346,15251
33.2409,14729
33.2472,12927
33.2535,12716
33.2599,14438
33.2662,12690
33.2725,15507
33.2788,15453
33.2851,13860
33.2914,19208
33.2977,22233
33.304,23869
33.3103,29302
33.3166,29786
33.3229,22439
33.3292,19178
33.3355,17383
33.3419,16540
33.3482,17272
33.3545,21593
33.3608,25648
33.3671,37356
33.3734,46432
33.3797,48480
33.386,42985
33.3923,40323
33.3986,33683
33.4049,28624
33.4113,26059
33.4176,33248
33.4239,37146
33.4302,37422
33.4365,33170
33.4428,25307
33.4491,22379
33.4554,22684
33.4617,25189
33.468,31453
33.4743,36979
33.4806,45478
33.487,53580
33.4933,47378
33.4996,39789
33.5059,32467
33.5122,28547
33.5185,27762
33.5248,34050
33.5311,41063
33.5374,48799
33.5437,45916
33.55,42744
33.5564,34308
33.5626,32582
33.569,30232
33.5753,31062
33.5816,28948
33.5879,30408
33.5942,29992
33.6005,34688
33.6068,42686
33.6131,44473
33.6194,42390
33.6257,39534
33.6321,31090
33.6384,31351
33.6447,31371
33.651,28497
33.6573,26967
33.6636,29333
33.6699,28653
33.6762,30803
33.6825,27881
33.6888,24417
33.6951,24466
33.7015,23949
33.7077,23246
33.7141,26942
33.7204,26918
33.7267,25846
33.733,24476
33.7393,24027
33.7456,25735
33.7519,30415
33.7582,30349
33.7645,30129
33.7709,28228
33.7771,29468
33.7835,31678
33.7898,29535
33.7961,29200
33.8024,27544
33.8087,25254
33.815,25529
33.8213,26485
33.8276,28660
33.8339,29591
33.8402,28316
33.8466,26447
33.8528,27312
33.8592,24514
33.8655,23334
33.8718,24432
33.8781,26527
33.8844,24623
33.8907,24568
33.897,24631
33.9033,23346
33.9096,23260
33.9159,22059
33.9222,24318
33.9286,24260
33.9349,26400
33.9412,25249
33.9475,20590
33.9538,22299
33.9601,20454
33.9664,21301
33.9727,21837
33.979,22031
33.9853,22074
33.9917,21001
33.998,25339
34.0043,29957
34.0106,33266
34.0169,29387
34.0232,26447
34.0295,24000
34.0358,22989
34.0421,24212
34.0484,22306
34.0547,20623
34.061,24988
34.0673,22296
34.0737,21468
34.08,21753
34.0863,20252
34.0926,23583
34.0989,25868
34.1052,29995
34.1115,25987
34.1178,23069
34.1241,21618
34.1304,21332
34.1367,24237
34.1431,23740
34.1494,20588
34.1557,19762
34.162,19705
34.1683,19520
34.1746,17664
34.1809,18728
34.1872,18862
34.1935,18018
34.1998,20259
34.2061,21269
34.2124,20249
34.2188,20677
34.2251,21413
34.2314,21306
34.2377,22924
34.244,25873
34.2503,27932
34.2566,37416
34.2629,34307
34.2692,28407
34.2755,25134
34.2818,21985
34.2882,19711
34.2945,18357
34.3008,20144
34.3071,20803
34.3134,18148
34.3197,21042
34.326,19890
34.3323,19444
34.3386,20589
34.3449,18292
34.3512,18122
34.3576,21867
34.3638,19378
34.3702,18377
34.3765,19684
34.3828,20393
34.3891,21114
34.3954,19400
34.4017,19472
34.408,20563
34.4143,19218
34.4206,19262
34.4269,20148
34.4333,20621
34.4395,19395
34.4459,22039
34.4522,24633
34.4585,24916
34.4648,32051
34.4711,37779
34.4774,46514
34.4837,53195
34.49,49518
34.4963,43349
34.5027,46908
34.5089,49414
34.5153,46991
34.5216,38116
34.5279,29726
34.5342,24971
34.5405,23847
34.5468,25833
34.5531,24821
34.5594,25789
34.5657,25835
34.572,23289
34.5784,20559
34.5847,21464
34.591,23263
34.5973,21552
34.6036,21799
34.6099,22865
34.6162,22434
34.6225,21640
34.6288,23172
34.6351,22970
34.6414,24898
34.6478,26701
34.654,30095
34.6604,35602
34.6667,36453
34.673,35853
34.6793,31489
34.6856,29701
34.6919,29343
34.6982,31969
34.7045,38570
34.7108,49212
34.7171,47349
34.7235,41435
34.7298,38464
34.7361,38568
34.7424,42779
34.7487,43915
34.755,45930
34.7613,48833
34.7676,44227
34.7739,39239
34.7802,33502
34.7865,31181
34.7928,38665
34.7991,40732
34.8055,49383
34.8118,53377
34.8181,49411
34.8244,38942
34.8307,39114
34.837,43963
34.8433,52017
34.8496,60189
34.8559,64519
34.8622,65982
34.8685,61978
34.8749,48062
34.8812,43415
34.8875,40062
34.8938,40682
34.9001,46829
34.9064,49627
34.9127,51185
34.919,48308
34.9253,43658
34.9316,41805
34.9379,40116
34.9442,40234
34.9506,44136
34.9569,39706
34.9632,40749
34.9695,42419
34.9758,38013
34.9821,34889
34.9884,33405
34.9947,34299
35.001,37778
35.0073,39354
35.0136,41248
35.02,40767
35.0263,40932
35.0326,41230
35.0389,42476
35.0452,38312
35.0515,41712
35.0578,41341
35.0641,41810
35.0704,48679
35.0767,50644
35.083,45204
35.0894,44130
35.0956,43337
35.102,39862
35.1083,40325
35.1146,40629
35.1209,37607
35.1272,40036
35.1335,38829
35.1398,37654
35.1461,40718
35.1524,40610
35.1588,40982
35.1651,40787
35.1714,38506
35.1777,37043
35.184,36725
35.1903,33673
35.1966,36266
35.2029,39823
35.2092,38371
35.2155,41912
35.2218,37678
35.2281,39113
35.2345,38973
35.2407,37491
35.2471,36336
35.2534,36757
35.2597,38516
35.266,40921
35.2723,41516
35.2786,40699
35.2849,41065
35.2912,37351
35.2975,37791
35.3038,37778
35.3102,40668
35.3165,36433
35.3228,37305
35.3291,36338
35.3354,37300
35.3417,35327
35.348,31675
35.3543,34185
35.3606,41498
35.3669,36511
35.3732,40205
35.3796,37382
35.3859,34601
35.3922,33689
35.3985,32841
35.4048,35605
35.4111,38857
35.4174,36505
35.4237,34411
35.43,38821
35.4363,40054
35.4426,40748
35.4489,42243
35.4552,44574
35.4616,45367
35.4679,46641
35.4742,42016
35.4805,39200
35.4868,39699
35.4931,39870
35.4994,39438
35.5057,36762
35.512,38870
35.5183,39808
35.5247,40048
35.531,40494
35.5373,37510
35.5436,38140
35.5499,36090
35.5562,33743
35.5625,36777
35.5688,34282
35.5751,33778
35.5814,30851
35.5877,32813
35.594,32757
35.6003,34819
35.6067,31380
35.613,31158
35.6193,35253
35.6256,30701
35.6319,31789
35.6382,35571
35.6445,31197
35.6508,32307
35.6571,34881
35.6634,35468
35.6698,35921
35.6761,38413
35.6824,38796
35.6887,41271
35.695,49729
35.7013,66771
35.7076,111224
35.7139,181164
35.7202,228615
35.7265,221842
35.7328,175119
35.7391,118132
35.7454,77960
35.7518,56462
35.7581,50399
35.7644,45367
35.7707,41383
35.777,43510
35.7833,40369
35.7896,38272
35.7959,37579
35.8022,41476
35.8085,35504
35.8148,38897
35.8212,38757
35.8274,36031
35.8338,36747
35.8401,36532
35.8464,37327
35.8527,35447
35.859,34077
35.8653,36079
35.8716,38541
35.8779,36547
35.8842,35276
35.8906,37403
35.8969,39523
35.9032,36805
35.9095,37520
35.9158,38117
35.9221,40668
35.9284,38920
35.9347,42329
35.941,41836
35.9473,38418
35.9536,39979
35.9599,38589
35.9663,38209
35.9725,38710
35.9789,39141
35.9852,38008
35.9915,39987
35.9978,42684
36.0041,45251
36.0104,43760
36.0167,40947
36.023,42008
36.0293,40452
36.0357,41525
36.042,45808
36.0483,50863
36.0546,50027
36.0609,48541
36.0672,45491
36.0735,46051
36.0798,44506
36.0861,45359
36.0924,51099
36.0987,53865
36.105,54820
36.1114,53048
36.1177,47266
36.124,42700
36.1303,43903
36.1366,50156
36.1429,55505
36.1492,56280
36.1555,52881
36.1618,58918
36.1681,53584
36.1744,52823
36.1808,51647
36.187,51067
36.1934,51414
36.1997,50402
36.206,50563
36.2123,52125
36.2186,49712
36.2249,50371
36.2312,52189
36.2375,49188
36.2438,51033
36.2501,51364
36.2565,52132
36.2628,47693
36.2691,53578
36.2754,48278
36.2817,47073
36.288,47658
36.2943,44535
36.3006,47919
36.3069,45358
36.3132,49284
36.3195,49158
36.3258,48339
36.3321,47640
36.3385,46558
36.3448,47022
36.3511,46733
36.3574,48593
36.3637,48713
36.37,49215
36.3763,48008
36.3826,46972
36.3889,47028
36.3952,47509
36.4016,46861
36.4079,49895
36.4142,48585
36.4205,47635
36.4268,46665
36.4331,43640
36.4394,45691
36.4457,47784
36.452,46683
36.4583,49578
36.4646,46348
36.4709,46278
36.4773,50809
36.4836,46903
36.4899,48344
36.4962,45564
36.5025,46525
36.5088,47631
36.5151,47737
36.5214,46231
36.5277,47972
36.534,47129
36.5403,46753
36.5467,42685
36.553,46139
36.5593,46558
36.5656,45658
36.5719,49038
36.5782,46974
36.5845,45588
36.5908,45894
36.5971,47534
36.6034,44787
36.6097,46936
36.616,47792
36.6224,46579
36.6287,45676
36.635,46779
36.6413,44171
36.6476,45340
36.6539,47098
36.6602,44159
36.6665,44609
36.6728,43309
36.6791,41711
36.6854,44955
36.6917,40242
36.6981,43863
36.7044,42757
36.7107,41614
36.717,42553
36.7233,44147
36.7296,42006
36.7359,43120
36.7422,45694
36.7485,42375
36.7548,46839
36.7611,43385
36.7675,46228
36.7738,43827
36.7801,44515
36.7864,48040
36.7927,47253
36.799,49639
36.8053,47622
36.8116,43605
36.8179,43353
36.8242,42809
36.8305,43951
36.8368,41181
36.8432,40534
36.8495,43636
36.8558,44340
36.8621,43623
36.8684,42870
36.8747,40068
36.881,43016
36.8873,41409
36.8936,40360
36.8999,45305
36.9062,40104
36.9126,40822
36.9188,39935
36.9252,39451
36.9315,40953
36.9378,40630
36.9441,38812
36.9504,40890
36.9567,39888
36.963,42039
36.9693,42812
36.9756,42060
36.9819,38840
36.9883,39831
36.9946,40112
37.0009,39724
37.0072,41186
37.0135,41082
37.0198,42787
37.0261,42014
37.0324,41693
37.0387,44680
37.045,42016
37.0513,40500
37.0577,35285
37.0639,41274
37.0703,41173
37.0766,39846
37.0829,37348
37.0892,38784
37.0955,42927
37.1018,41409
37.1081,43495
37.1144,42933
37.1207,40878
37.127,42157
37.1334,44792
37.1397,42643
37.146,42648
37.1523,41384
37.1586,43431
37.1649,42404
37.1712,40998
37.1775,42522
37.1838,43571
37.1901,43878
37.1964,42822
37.2027,40688
37.2091,40439
37.2154,40283
37.2217,39020
37.228,36182
37.2343,35296
37.2406,38765
37.2469,40011
37.2532,39319
37.2595,39498
37.2658,38502
37.2721,37885
37.2784,40574
37.2848,39641
37.2911,40847
37.2974,40128
37.3037,38453
37.31,40044
37.3163,37653
37.3226,35343
37.3289,37453
37.3352,39768
37.3415,38278
37.3478,39680
37.3542,39810
37.3605,41619
37.3668,40821
37.3731,39107
37.3794,40872
37.3857,39867
37.392,39361
37.3983,39564
37.4046,42553
37.4109,41193
37.4172,39921
37.4235,37490
37.4299,35197
37.4362,36826
37.4425,39759
37.4488,39459
37.4551,38774
37.4614,39953
37.4677,41733
37.474,37847
37.4803,40032
37.4866,43155
37.4929,46065
