D:\JEFF_NEW\NEW_DATA\20230701_20200619_OPALL_1_JEREMY.d  1 Jul 23   9:31 am
Start of data points
3.89313,44471
3.89943,43341
3.90575,42606
3.91207,44377
3.91837,47161
3.92468,49859
3.93098,62089
3.9373,68202
3.9436,66476
3.94992,58280
3.95622,51350
3.96253,45239
3.96883,47470
3.97515,45748
3.98145,45706
3.98777,47777
3.99407,48479
4.00038,50283
4.00668,51473
4.013,45661
4.0193,48201
4.02562,46340
4.03192,50549
4.03823,50301
4.04453,53047
4.05085,51557
4.05715,53250
4.06347,55067
4.06977,58591
4.07608,59391
4.0824,61446
4.0887,65488
4.09502,67105
4.10132,70481
4.10763,78811
4.11393,91886
4.12025,122842
4.12655,155359
4.13287,157797
4.13917,122469
4.14548,82038
4.15178,55439
4.1581,43390
4.1644,40716
4.17072,36260
4.17702,31173
4.18333,30576
4.18963,29322
4.19595,27039
4.20225,26960
4.20857,28348
4.21487,32788
4.22118,37503
4.22748,48236
4.2338,55444
4.2401,51672
4.24642,44331
4.25273,41854
4.25903,49281
4.26535,47216
4.27165,43241
4.27797,31228
4.28427,27282
4.29058,25164
4.29688,22726
4.3032,21907
4.3095,21944
4.31582,20133
4.32212,19857
4.32843,19098
4.33473,20156
4.34105,17979
4.34735,19707
4.35367,20565
4.35997,26518
4.36628,33072
4.37258,35053
4.3789,33931
4.3852,27196
4.39152,24421
4.39782,27384
4.40413,29109
4.41043,29126
4.41675,31149
4.42305,33598
4.42937,36383
4.43568,40312
4.44198,59274
4.4483,96471
4.4546,147910
4.46092,167794
4.46722,132058
4.47353,76386
4.47983,37499
4.48615,22576
4.49245,18530
4.49877,16270
4.50507,16551
4.51138,14022
4.51768,12388
4.524,17181
4.5303,27168
4.53662,42006
4.54292,46048
4.54923,43616
4.55553,37913
4.56185,34613
4.56815,28949
4.57447,23271
4.58077,19977
4.58708,17569
4.59338,17268
4.5997,14294
4.60602,11648
4.61232,12523
4.61863,13680
4.62493,13778
4.63125,12429
4.63755,12112
4.64387,12905
4.65017,12178
4.65648,13850
4.66278,13807
4.6691,11320
4.6754,13266
4.68172,11327
4.68802,11587
4.69433,11061
4.70063,10552
4.70695,9210
4.71325,11282
4.71957,12302
4.72587,13102
4.73218,13072
4.73848,10975
4.7448,13824
4.7511,16216
4.75742,14582
4.76372,16485
4.77003,16001
4.77635,14362
4.78265,13042
4.78897,9631
4.79527,11417
4.80158,11875
4.80788,12988
4.8142,11772
4.8205,14354
4.82682,18321
4.83312,25198
4.83943,33520
4.84573,41764
4.85205,38581
4.85835,32111
4.86467,21224
4.87097,18026
4.87728,17436
4.88358,16795
4.8899,17918
4.8962,20180
4.90252,21444
4.90882,19350
4.91513,20818
4.92143,22429
4.92775,22741
4.93405,23506
4.94037,31077
4.94668,41635
4.95298,43857
4.9593,45016
4.9656,36998
4.97192,36332
4.97822,31758
4.98453,25829
4.99083,26157
4.99715,26292
5.00345,26924
5.00977,25633
5.01607,25623
5.02238,23838
5.02868,28937
5.035,25671
5.0413,29669
5.04762,29627
5.05392,32091
5.06023,38950
5.06653,53663
5.07285,72180
5.07915,96963
5.08547,104453
5.09177,87217
5.09808,65743
5.10438,44940
5.1107,34563
5.11702,27276
5.12332,27182
5.12963,24216
5.13593,28793
5.14225,27834
5.14855,32100
5.15487,45695
5.16117,58339
5.16748,62545
5.17378,61609
5.1801,62098
5.1864,64099
5.19272,69401
5.19902,67417
5.20533,65711
5.21163,57624
5.21795,47958
5.22425,38704
5.23057,32676
5.23687,33907
5.24318,41552
5.24948,46371
5.2558,45879
5.2621,42856
5.26842,38322
5.27472,34366
5.28103,51626
5.28733,41156
5.29365,31966
5.29997,21684
5.30627,18630
5.31258,17791
5.31888,16330
5.3252,18052
5.3315,17984
5.33782,18444
5.34412,19187
5.35043,16432
5.35673,17817
5.36305,18263
5.36935,17685
5.37567,17476
5.38197,15497
5.38828,17455
5.39458,16802
5.4009,18232
5.4072,19083
5.41352,20386
5.41982,20797
5.42613,21524
5.43243,19236
5.43875,18310
5.44505,16031
5.45137,15612
5.45767,16346
5.46398,15486
5.4703,17403
5.4766,15569
5.48292,14625
5.48922,14157
5.49553,15568
5.50183,16932
5.50815,15254
5.51445,14129
5.52077,14662
5.52707,15511
5.53338,13883
5.53968,16311
5.546,14974
5.5523,16026
5.55862,17030
5.56492,15628
5.57123,16972
5.57753,15094
5.58385,16879
5.59015,17151
5.59647,17834
5.60277,17585
5.60908,21091
5.61538,26016
5.6217,27825
5.628,23422
5.63432,22350
5.64063,17493
5.64693,16407
5.65325,15594
5.65955,15660
5.66587,15812
5.67217,14734
5.67848,14603
5.68478,14787
5.6911,14884
5.6974,13526
5.70372,14136
5.71002,13342
5.71633,15190
5.72263,14191
5.72895,12900
5.73525,13324
5.74157,13523
5.74787,12985
5.75418,13637
5.76048,16752
5.7668,20610
5.7731,22607
5.77942,25078
5.78572,25643
5.79203,20862
5.79833,17000
5.80465,13873
5.81097,14124
5.81727,12863
5.82358,13455
5.82988,11881
5.8362,13350
5.8425,12178
5.84882,12992
5.85512,13653
5.86143,13766
5.86773,13108
5.87405,13222
5.88035,10925
5.88667,12941
5.89297,13053
5.89928,13400
5.90558,12468
5.9119,11478
5.9182,12267
5.92452,13556
5.93082,14411
5.93713,13174
5.94343,14029
5.94975,14812
5.95605,13039
5.96237,15249
5.96867,14515
5.97498,13753
5.9813,12947
5.9876,14039
5.99392,15915
6.00022,15908
6.00653,15946
6.01283,14656
6.01915,15179
6.02545,12436
6.03177,12842
6.03807,12606
6.04438,12866
6.05068,13362
6.057,12581
6.0633,13507
6.06962,11167
6.07592,12828
6.08223,12943
6.08853,10987
6.09485,13477
6.10115,13091
6.10747,13636
6.11377,14534
6.12008,12447
6.12638,13090
6.1327,12879
6.139,12153
6.14532,14490
6.15162,15902
6.15793,16295
6.16425,20153
6.17055,20131
6.17687,23141
6.18317,21811
6.18948,18746
6.19578,15899
6.2021,14735
6.2084,14546
6.21472,12615
6.22102,12751
6.22733,12619
6.23363,12201
6.23995,10955
6.24625,11752
6.25257,12370
6.25887,11411
6.26518,9741
6.27148,10805
6.2778,11681
6.2841,12699
6.29042,11651
6.29672,11467
6.30303,13320
6.30933,13851
6.31565,17875
6.32195,20587
6.32827,22474
6.33458,25101
6.34088,26304
6.3472,22306
6.3535,18681
6.35982,15957
6.36612,14408
6.37243,13350
6.37873,14856
6.38505,15295
6.39135,15165
6.39767,16097
6.40397,16430
6.41028,16142
6.41658,17557
6.4229,17345
6.4292,15703
6.43552,13363
6.44182,15755
6.44813,16276
6.45443,18601
6.46075,23437
6.46705,24099
6.47337,32320
6.47967,47457
6.48598,74663
6.49228,114201
6.4986,155386
6.50492,197421
6.51122,231091
6.51753,265707
6.52383,288359
6.53015,313633
6.53645,345638
6.54277,363924
6.54907,391113
6.55538,395617
6.56168,416490
6.568,427736
6.5743,451981
6.58062,494461
6.58692,520547
6.59323,556823
6.59953,587167
6.60585,633643
6.61215,664298
6.61847,700557
6.62477,753955
6.63108,786788
6.63738,811863
6.6437,842147
6.65,859873
6.65632,908319
6.66262,942073
6.66893,988126
6.67525,1008680
6.68155,1047433
6.68787,1096383
6.69417,1137322
6.70048,1193114
6.70678,1235333
6.7131,1306267
6.7194,1379084
6.72572,1459881
6.73202,1548991
6.73833,1657374
6.74463,1726251
6.75095,1833513
6.75725,1951477
6.76357,2035265
6.76987,2132548
6.77618,2266679
6.78248,2353079
6.7888,2438719
6.7951,2556052
6.80142,2708216
6.80772,2962867
6.81403,3189708
6.82033,3421425
6.82665,3682975
6.83295,3939159
6.83927,4157153
6.84558,4386041
6.85188,4574584
6.8582,4801707
6.8645,5078497
6.87082,5291891
6.87712,5588129
6.88343,5218831
6.88973,1551669
6.89605,356285
6.90235,272602
6.90867,258909
6.91497,254688
6.92128,255773
6.92758,268248
6.9339,289791
6.9402,325177
6.94652,368405
6.95282,401543
6.95913,433864
6.96543,463127
6.97175,482170
6.97805,512655
6.98437,568439
6.99067,641351
6.99698,752010
7.00328,886893
7.0096,1033706
7.01592,1172502
7.02222,1357205
7.02853,1516320
7.03483,1663251
7.04115,1703089
7.04745,1180754
7.05377,422965
7.06007,166680
7.06638,109057
7.07268,85981
7.079,70209
7.0853,64535
7.09162,59305
7.09792,55758
7.10423,53589
7.11053,55045
7.11685,49310
7.12315,45077
7.12947,41769
7.13577,40775
7.14208,35735
7.14838,36206
7.1547,34725
7.161,35739
7.16732,32502
7.17362,37311
7.17993,34694
7.18623,37329
7.19255,36748
7.19887,40569
7.20517,48275
7.21148,67607
7.21778,99011
7.2241,157329
7.2304,215918
7.23672,264416
7.24302,261791
7.24933,214657
7.25563,152319
7.26195,108983
7.26825,97922
7.27457,114156
7.28087,143810
7.28718,154517
7.29348,145389
7.2998,120457
7.3061,85554
7.31242,59823
7.31872,45876
7.32503,35401
7.33133,29471
7.33765,25223
7.34395,24561
7.35027,21866
7.35657,20829
7.36288,21543
7.3692,20230
7.3755,20234
7.38182,19922
7.38812,20975
7.39443,20149
7.40073,21325
7.40705,19431
7.41335,18174
7.41967,16857
7.42597,18132
7.43228,17785
7.43858,17497
7.4449,17215
7.4512,17540
7.45752,16683
7.46382,18328
7.47013,16663
7.47643,16440
7.48275,17646
7.48905,18558
7.49537,17252
7.50167,17880
7.50798,19794
7.51428,20039
7.5206,21183
7.5269,23631
7.53322,21250
7.53953,20030
7.54583,19715
7.55215,21941
7.55845,18397
7.56477,14227
7.57107,17479
7.57738,17588
7.58368,17748
7.59,16302
7.5963,16420
7.60262,16037
7.60892,15842
7.61523,16070
7.62153,15064
7.62785,15294
7.63415,15737
7.64047,15678
7.64677,14970
7.65308,14773
7.65938,15461
7.6657,16168
7.672,16460
7.67832,18423
7.68462,18999
7.69093,18541
7.69723,19294
7.70355,16116
7.70987,15889
7.71617,14884
7.72248,13684
7.72878,12330
7.7351,14921
7.7414,14270
7.74772,14955
7.75402,14990
7.76033,15270
7.76663,14603
7.77295,14647
7.77925,14226
7.78557,14203
7.79187,14004
7.79818,15658
7.80448,13389
7.8108,14313
7.8171,13676
7.82342,14050
7.82972,14131
7.83603,14377
7.84233,14255
7.84865,13502
7.85495,14709
7.86127,15159
7.86757,16147
7.87388,17411
7.8802,16898
7.8865,17649
7.89282,17355
7.89912,18057
7.90543,16758
7.91173,18891
7.91805,22936
7.92435,29501
7.93067,42054
7.93697,57349
7.94328,87425
7.94958,118977
7.9559,132796
7.9622,123899
7.96852,99819
7.97482,71254
7.98113,42681
7.98743,26596
7.99375,17694
8.00005,14982
8.00637,14036
8.01267,13402
8.01898,13127
8.02528,13215
8.0316,11773
8.0379,11922
8.04422,12515
8.05052,13415
8.05683,14097
8.06315,11763
8.06945,12241
8.07577,12967
8.08207,13004
8.08838,15766
8.09468,14702
8.101,12912
8.1073,14534
8.11362,14590
8.11992,12791
8.12623,14193
8.13253,13682
8.13885,15409
8.14515,15321
8.15147,13707
8.15777,16373
8.16408,18122
8.17038,18041
8.1767,20986
8.183,24577
8.18932,27650
8.19562,30309
8.20193,31053
8.20823,33043
8.21455,37889
8.22085,41690
8.22717,52396
8.23348,83809
8.23978,128326
8.2461,217837
8.2524,324706
8.25872,407906
8.26502,412852
8.27133,360194
8.27763,257299
8.28395,145475
8.29025,73663
8.29657,34960
8.30287,21955
8.30918,15446
8.31548,17819
8.3218,19668
8.3281,20243
8.33442,23055
8.34072,22583
8.34703,20548
8.35333,16950
8.35965,15839
8.36595,14787
8.37227,14125
8.37857,11755
8.38488,13167
8.39118,12995
8.3975,13532
8.40382,13706
8.41012,11571
8.41643,13462
8.42273,19691
8.42905,28713
8.43535,35615
8.44167,33581
8.44797,31113
8.45428,29365
8.46058,24397
8.4669,22291
8.4732,20551
8.47952,19391
8.48582,18473
8.49213,18520
8.49843,15699
8.50475,15924
8.51105,14717
8.51737,14649
8.52367,14274
8.52998,12884
8.53628,13874
8.5426,12420
8.5489,11547
8.55522,12873
8.56152,11883
8.56783,10877
8.57415,11692
8.58045,9925
8.58677,10809
8.59307,11108
8.59938,11252
8.60568,11396
8.612,9267
8.6183,9635
8.62462,10234
8.63092,10881
8.63723,10556
8.64353,10583
8.64985,9924
8.65615,11465
8.66247,10463
8.66877,8441
8.67508,10632
8.68138,10249
8.6877,9991
8.694,10492
8.70032,10607
8.70662,10580
8.71293,10629
8.71923,8734
8.72555,10864
8.73185,11447
8.73817,11740
8.74448,11388
8.75078,13379
8.7571,12095
8.7634,13934
8.76972,13594
8.77602,13756
8.78233,16302
8.78863,18892
8.79495,19593
8.80125,18334
8.80757,15811
8.81387,14078
8.82018,13245
8.82648,12827
8.8328,12008
8.8391,10856
8.84542,11095
8.85172,12160
8.85803,11878
8.86433,15131
8.87065,16913
8.87695,18298
8.88327,20228
8.88957,17603
8.89588,18662
8.90218,16342
8.9085,16684
8.9148,15617
8.92112,14027
8.92743,13940
8.93373,13199
8.94005,11604
8.94635,12861
8.95267,11227
8.95897,12306
8.96528,12722
8.97158,13155
8.9779,12656
8.9842,14905
8.99052,15868
8.99682,18728
9.00313,21987
9.00943,21515
9.01575,19162
9.02205,16889
9.02837,15365
9.03467,15009
9.04098,14040
9.04728,14977
9.0536,14382
9.0599,17044
9.06622,22908
9.07252,27263
9.07883,33697
9.08513,45872
9.09145,58478
9.09777,71393
9.10407,85581
9.11038,90883
9.11668,87692
9.123,69039
9.1293,47720
9.13562,31471
9.14192,20259
9.14823,14631
9.15453,10007
9.16085,8581
9.16715,9903
9.17347,9889
9.17977,8908
9.18608,9939
9.19238,10540
9.1987,10789
9.205,12872
9.21132,14193
9.21762,13968
9.22393,14590
9.23023,13193
9.23655,12151
9.24285,14590
9.24917,12597
9.25547,12554
9.26178,13232
9.2681,12376
9.2744,12226
9.28072,14767
9.28702,12591
9.29333,13835
9.29963,11960
9.30595,15150
9.31225,18668
9.31857,32391
9.32487,62552
9.33118,113475
9.33748,177784
9.3438,235270
9.3501,261722
9.35642,239337
9.36272,179546
9.36903,116993
9.37533,69011
9.38165,36405
9.38795,21516
9.39427,16104
9.40057,12936
9.40688,10449
9.41318,10470
9.4195,9790
9.4258,10563
9.43212,9441
9.43843,9546
9.44473,9628
9.45105,9614
9.45735,7844
9.46367,9242
9.46997,8421
9.47628,8682
9.48258,8217
9.4889,7975
9.4952,9477
9.50152,9899
9.50782,10239
9.51413,8442
9.52043,10404
9.52675,9915
9.53305,10300
9.53937,9901
9.54567,9787
9.55198,10127
9.55828,10750
9.5646,9222
9.5709,11921
9.57722,12075
9.58352,11145
9.58983,10288
9.59613,9725
9.60245,9606
9.60877,8497
9.61507,7584
9.62138,9167
9.62768,7512
9.634,8941
9.6403,7826
9.64662,10090
9.65292,11504
9.65923,9582
9.66553,9773
9.67185,7759
9.67815,8990
9.68447,8990
9.69077,7940
9.69708,9045
9.70338,10555
9.7097,10137
9.716,9547
9.72232,9635
9.72862,8428
9.73493,9629
9.74123,10342
9.74755,12097
9.75385,15530
9.76017,23969
9.76647,33251
9.77278,39979
9.77908,43864
9.7854,39134
9.79172,35314
9.79802,26976
9.80433,18782
9.81063,17053
9.81695,14759
9.82325,11833
9.82957,11808
9.83587,12421
9.84218,13474
9.84848,13579
9.8548,16099
9.8611,15965
9.86742,13155
9.87372,14368
9.88003,10006
9.88633,9698
9.89265,12368
9.89895,11339
9.90527,14357
9.91157,16435
9.91788,13927
9.92418,15430
9.9305,14808
9.9368,11384
9.94312,10658
9.94942,8367
9.95573,9861
9.96205,7142
9.96835,8009
9.97467,8415
9.98097,7013
9.98728,8802
9.99358,10038
9.9999,11606
10.0062,14785
10.0125,25273
10.0188,33686
10.0251,43727
10.0314,46825
10.0378,49902
10.0441,40384
10.0504,29905
10.0567,19442
10.063,17132
10.0693,13296
10.0756,12601
10.0819,13459
10.0882,13128
10.0945,15035
10.1008,16009
10.1071,17410
10.1135,17279
10.1198,21189
10.1261,15404
10.1324,11611
10.1387,10873
10.145,10487
10.1513,10215
10.1576,9521
10.1639,10222
10.1702,9938
10.1765,8191
10.1829,9557
10.1892,8715
10.1955,8816
10.2018,8142
10.2081,9520
10.2144,9079
10.2207,9541
10.227,10198
10.2333,9414
10.2396,9352
10.2459,11411
10.2522,13440
10.2586,18049
10.2649,27049
10.2712,50459
10.2775,79717
10.2838,110703
10.2901,140587
10.2964,153839
10.3027,160227
10.309,179236
10.3153,247250
10.3216,405992
10.328,683314
10.3343,1019840
10.3406,1312507
10.3469,1416738
10.3532,1328342
10.3595,1023865
10.3658,698378
10.3721,417260
10.3784,231594
10.3847,142669
10.391,106658
10.3973,95395
10.4037,95577
10.41,83202
10.4163,66253
10.4226,47457
10.4289,33104
10.4352,22119
10.4415,15807
10.4478,15831
10.4541,16291
10.4604,15773
10.4667,16725
10.4731,15758
10.4794,16315
10.4857,14313
10.492,14642
10.4983,19196
10.5046,21952
10.5109,29044
10.5172,36687
10.5235,43012
10.5298,41506
10.5361,37004
10.5424,32881
10.5488,26366
10.5551,24895
10.5614,27643
10.5677,29715
10.574,41940
10.5803,51857
10.5866,55344
10.5929,52927
10.5992,45531
10.6055,32824
10.6118,22360
10.6181,17365
10.6245,16766
10.6308,14237
10.6371,13539
10.6434,11889
10.6497,10340
10.656,12492
10.6623,12772
10.6686,18946
10.6749,37815
10.6812,95997
10.6875,247327
10.6939,646274
10.7002,1443113
10.7065,2848920
10.7128,4955765
10.7191,7220184
10.7254,9039591
10.7317,9403284
10.738,8326994
10.7443,5947150
10.7506,3436183
10.7569,1610189
10.7632,617195
10.7696,205921
10.7759,65961
10.7822,26743
10.7885,19415
10.7948,16087
10.8011,14648
10.8074,14333
10.8137,13011
10.82,16460
10.8263,16115
10.8326,24670
10.839,50070
10.8453,118177
10.8516,273434
10.8579,569432
10.8642,1004059
10.8705,1509075
10.8768,1921797
10.8831,2032950
10.8894,1803734
10.8957,1382094
10.902,856079
10.9083,454533
10.9147,216711
10.921,100783
10.9273,48952
10.9336,32093
10.9399,23112
10.9462,16651
10.9525,16030
10.9588,14354
10.9651,12293
10.9714,10957
10.9777,10839
10.984,10332
10.9904,10338
10.9967,10747
11.003,12030
11.0093,11915
11.0156,14740
11.0219,13388
11.0282,15130
11.0345,12065
11.0408,13104
11.0471,11221
11.0534,11722
11.0598,11867
11.0661,9913
11.0724,10287
11.0787,11034
11.085,9969
11.0913,10125
11.0976,10011
11.1039,11377
11.1102,16481
11.1165,16272
11.1228,17736
11.1291,21393
11.1355,19443
11.1418,14438
11.1481,14473
11.1544,13705
11.1607,15238
11.167,18182
11.1733,20403
11.1796,21523
11.1859,20592
11.1922,19028
11.1985,16785
11.2049,13447
11.2112,12366
11.2175,10542
11.2238,9475
11.2301,6748
11.2364,8100
11.2427,9605
11.249,9420
11.2553,10042
11.2616,8303
11.2679,12337
11.2742,20905
11.2806,53123
11.2869,138582
11.2932,339952
11.2995,730966
11.3058,1337051
11.3121,2020509
11.3184,2530247
11.3247,2613768
11.331,2224268
11.3373,1580025
11.3436,900731
11.35,424894
11.3563,176878
11.3626,65976
11.3689,30262
11.3752,20772
11.3815,18348
11.3878,19726
11.3941,22220
11.4004,31394
11.4067,48102
11.413,77989
11.4193,116047
11.4257,149037
11.432,162435
11.4383,164664
11.4446,130716
11.4509,92479
11.4572,57358
11.4635,30617
11.4698,21241
11.4761,12157
11.4824,10649
11.4887,10817
11.495,9455
11.5014,8445
11.5077,8905
11.514,10403
11.5203,12760
11.5266,11189
11.5329,11908
11.5392,12368
11.5455,10684
11.5518,9853
11.5581,9800
11.5644,8668
11.5708,9931
11.5771,9985
11.5834,9331
11.5897,8553
11.596,8280
11.6023,8029
11.6086,7983
11.6149,8849
11.6212,9126
11.6275,8104
11.6338,8798
11.6401,8723
11.6465,9183
11.6528,8437
11.6591,8570
11.6654,10189
11.6717,12137
11.678,15902
11.6843,21048
11.6906,22765
11.6969,23143
11.7032,24785
11.7095,22877
11.7159,18757
11.7222,16391
11.7285,14484
11.7348,11840
11.7411,11301
11.7474,18525
11.7537,21656
11.76,30891
11.7663,23878
11.7726,31340
11.7789,31761
11.7852,24899
11.7916,25291
11.7979,32165
11.8042,30877
11.8105,25088
11.8168,32298
11.8231,28819
11.8294,27366
11.8357,27823
11.842,23811
11.8483,28955
11.8546,32232
11.861,58750
11.8673,100883
11.8736,155770
11.8799,204579
11.8862,228969
11.8925,213311
11.8988,169301
11.9051,122772
11.9114,73048
11.9177,46509
11.924,28540
11.9303,21664
11.9367,18638
11.943,17504
11.9493,17046
11.9556,21026
11.9619,24919
11.9682,26708
11.9745,28942
11.9808,24865
11.9871,22264
11.9934,17366
11.9997,15521
12.006,10734
12.0124,9265
12.0187,7922
12.025,8103
12.0313,8648
12.0376,8219
12.0439,10930
12.0502,9099
12.0565,12643
12.0628,16243
12.0691,18520
12.0754,20393
12.0818,22533
12.0881,19236
12.0944,18070
12.1007,15721
12.107,15338
12.1133,17303
12.1196,18954
12.1259,17722
12.1322,17826
12.1385,16856
12.1448,14159
12.1511,14265
12.1575,11820
12.1638,12390
12.1701,11868
12.1764,13677
12.1827,14114
12.189,12999
12.1953,13613
12.2016,13517
12.2079,12501
12.2142,14164
12.2205,13667
12.2269,12673
12.2332,12415
12.2395,13631
12.2458,13974
12.2521,15557
12.2584,12268
12.2647,13776
12.271,11427
12.2773,10465
12.2836,9795
12.2899,8204
12.2962,6514
12.3026,8787
12.3089,11726
12.3152,12480
12.3215,18184
12.3278,24824
12.3341,32400
12.3404,40081
12.3467,42888
12.353,36913
12.3593,37544
12.3656,26023
12.3719,20181
12.3783,13202
12.3846,8344
12.3909,7891
12.3972,7902
12.4035,8364
12.4098,7371
12.4161,6840
12.4224,8204
12.4287,7030
12.435,9118
12.4413,8165
12.4477,8332
12.454,11375
12.4603,10804
12.4666,9561
12.4729,10002
12.4792,7992
12.4855,10075
12.4918,10333
12.4981,11159
12.5044,12388
12.5107,13501
12.517,16096
12.5234,14264
12.5297,16719
12.536,14604
12.5423,12929
12.5486,9937
12.5549,8113
12.5612,8289
12.5675,8409
12.5738,8271
12.5801,8446
12.5864,8453
12.5928,8596
12.5991,6760
12.6054,6903
12.6117,6906
12.618,8028
12.6243,7391
12.6306,10288
12.6369,17450
12.6432,35064
12.6495,69805
12.6558,145398
12.6621,254343
12.6685,414945
12.6748,555448
12.6811,669066
12.6874,694121
12.6937,631071
12.7,508674
12.7063,382191
12.7126,292826
12.7189,261845
12.7252,258815
12.7315,272689
12.7379,272545
12.7442,261902
12.7505,279157
12.7568,418570
12.7631,857676
12.7694,1821974
12.7757,3694294
12.782,6591923
12.7883,10913469
12.7946,16152932
12.8009,21785564
12.8072,28485240
12.8136,34237776
12.8199,38772940
12.8262,38209312
12.8325,30836242
12.8388,18562362
12.8451,7908342
12.8514,2574890
12.8577,727279
12.864,216219
12.8703,89053
12.8766,51876
12.8829,35922
12.8893,30429
12.8956,31843
12.9019,35740
12.9082,46065
12.9145,65708
12.9208,92156
12.9271,107845
12.9334,114711
12.9397,104470
12.946,78117
12.9523,54549
12.9587,36161
12.965,22364
12.9713,17143
12.9776,14455
12.9839,10974
12.9902,11096
12.9965,12724
13.0028,12690
13.0091,13271
13.0154,14244
13.0217,14381
13.028,12901
13.0344,9987
13.0407,11812
13.047,12362
13.0533,10500
13.0596,10132
13.0659,9939
13.0722,11087
13.0785,10190
13.0848,10666
13.0911,9209
13.0974,7734
13.1038,9758
13.1101,10046
13.1164,9868
13.1227,9662
13.129,10655
13.1353,12017
13.1416,16271
13.1479,13956
13.1542,19598
13.1605,21618
13.1668,29299
13.1731,38571
13.1795,39506
13.1858,35302
13.1921,32518
13.1984,30207
13.2047,27845
13.211,27312
13.2173,23591
13.2236,23927
13.2299,26189
13.2362,38168
13.2425,73617
13.2489,180108
13.2552,443658
13.2615,1021503
13.2678,2052556
13.2741,3477773
13.2804,5104684
13.2867,6263573
13.293,6539273
13.2993,5738414
13.3056,4247420
13.3119,2609589
13.3182,1383105
13.3246,604032
13.3309,230766
13.3372,85947
13.3435,38142
13.3498,24171
13.3561,20141
13.3624,17741
13.3687,19881
13.375,21064
13.3813,23560
13.3876,28557
13.3939,35484
13.4003,37851
13.4066,41365
13.4129,37746
13.4192,33343
13.4255,30277
13.4318,25781
13.4381,24343
13.4444,23916
13.4507,23652
13.457,27375
13.4633,27542
13.4697,25318
13.476,24605
13.4823,21449
13.4886,19536
13.4949,16371
13.5012,12626
13.5075,12288
13.5138,14994
13.5201,14245
13.5264,18012
13.5327,28083
13.539,53362
13.5454,111475
13.5517,237971
13.558,468837
13.5643,753791
13.5706,1062002
13.5769,1286983
13.5832,1321782
13.5895,1142930
13.5958,843666
13.6021,537867
13.6084,300370
13.6148,153317
13.6211,83122
13.6274,55616
13.6337,46984
13.64,42809
13.6463,36251
13.6526,32153
13.6589,28690
13.6652,24343
13.6715,22484
13.6778,22488
13.6841,24746
13.6905,24422
13.6968,20488
13.7031,22460
13.7094,21622
13.7157,20160
13.722,18028
13.7283,17435
13.7346,17619
13.7409,20703
13.7472,24115
13.7535,27739
13.7599,27481
13.7662,24652
13.7725,22517
13.7788,18257
13.7851,14791
13.7914,12319
13.7977,12025
13.804,11634
13.8103,10143
13.8166,9460
13.8229,9062
13.8292,9394
13.8356,10150
13.8419,10984
13.8482,10491
13.8545,13086
13.8608,12605
13.8671,16529
13.8734,17280
13.8797,19242
13.886,21299
13.8923,18995
13.8986,21352
13.9049,24878
13.9113,26409
13.9176,30824
13.9239,25178
13.9302,24507
13.9365,22385
13.9428,18072
13.9491,15290
13.9554,12835
13.9617,9893
13.968,10819
13.9743,8953
13.9807,9071
13.987,7837
13.9933,7443
13.9996,6942
14.0059,7749
14.0122,8687
14.0185,8352
14.0248,7116
14.0311,9923
14.0374,9363
14.0437,9275
14.05,9360
14.0564,8741
14.0627,10613
14.069,11470
14.0753,14231
14.0816,19509
14.0879,28466
14.0942,42739
14.1005,61992
14.1068,83292
14.1131,96694
14.1194,95229
14.1258,87598
14.1321,76916
14.1384,60249
14.1447,43611
14.151,37383
14.1573,25948
14.1636,21957
14.1699,18870
14.1762,16847
14.1825,15355
14.1888,13885
14.1951,11863
14.2015,13120
14.2078,13318
14.2141,14063
14.2204,16789
14.2267,19265
14.233,22291
14.2393,24198
14.2456,22639
14.2519,19724
14.2582,20611
14.2645,20967
14.2708,21778
14.2772,23116
14.2835,25619
14.2898,24080
14.2961,23485
14.3024,24227
14.3087,20069
14.315,21047
14.3213,22316
14.3276,22339
14.3339,23535
14.3402,19907
14.3466,17478
14.3529,11638
14.3592,10859
14.3655,9545
14.3718,9106
14.3781,8188
14.3844,8599
14.3907,7899
14.397,8314
14.4033,13129
14.4096,14003
14.4159,14365
14.4223,14878
14.4286,16553
14.4349,15451
14.4412,15661
14.4475,12757
14.4538,11148
14.4601,9367
14.4664,7226
14.4727,7459
14.479,7989
14.4853,7552
14.4917,7939
14.498,9608
14.5043,14286
14.5106,20762
14.5169,35644
14.5232,51218
14.5295,76479
14.5358,92561
14.5421,110437
14.5484,118022
14.5547,112643
14.561,103213
14.5674,83967
14.5737,63252
14.58,47515
14.5863,34554
14.5926,28574
14.5989,23758
14.6052,24198
14.6115,21160
14.6178,20916
14.6241,19393
14.6304,17553
14.6368,12064
14.6431,11593
14.6494,10576
14.6557,8269
14.662,8912
14.6683,8707
14.6746,7156
14.6809,9961
14.6872,9007
14.6935,6612
14.6998,8708
14.7061,7184
14.7125,7422
14.7188,7262
14.7251,6682
14.7314,6963
14.7377,7306
14.744,7914
14.7503,7243
14.7566,6993
14.7629,7069
14.7692,8115
14.7755,8267
14.7818,8738
14.7882,8279
14.7945,9442
14.8008,10204
14.8071,11682
14.8134,14489
14.8197,17843
14.826,20181
14.8323,22656
14.8386,27616
14.8449,35134
14.8512,52296
14.8576,85118
14.8639,151371
14.8702,280382
14.8765,495960
14.8828,817955
14.8891,1217917
14.8954,1683725
14.9017,2084492
14.908,2274759
14.9143,2231916
14.9206,1991926
14.9269,1531826
14.9333,1044680
14.9396,629258
14.9459,357049
14.9522,180097
14.9585,89532
14.9648,46695
14.9711,28528
14.9774,20769
14.9837,18330
14.99,16408
14.9963,14345
15.0027,13965
15.009,16960
15.0153,17903
15.0216,17921
15.0279,18990
15.0342,21742
15.0405,21125
15.0468,20672
15.0531,20567
15.0594,23667
15.0657,27180
15.072,33362
15.0784,39736
15.0847,48455
15.091,58182
15.0973,65625
15.1036,74470
15.1099,70139
15.1162,69894
15.1225,65642
15.1288,61465
15.1351,56008
15.1414,55241
15.1478,53700
15.1541,53163
15.1604,55113
15.1667,52297
15.173,46793
15.1793,37483
15.1856,28615
15.1919,21932
15.1982,18082
15.2045,13768
15.2108,11353
15.2171,9754
15.2235,11517
15.2298,9932
15.2361,14770
15.2424,22634
15.2487,37097
15.255,58122
15.2613,94689
15.2676,149227
15.2739,201607
15.2802,245851
15.2865,283825
15.2928,285330
15.2992,257340
15.3055,212223
15.3118,151233
15.3181,103032
15.3244,62775
15.3307,39062
15.337,26268
15.3433,17866
15.3496,14168
15.3559,12659
15.3622,12006
15.3686,13044
15.3749,10836
15.3812,12842
15.3875,12250
15.3938,11683
15.4001,10392
15.4064,10494
15.4127,10843
15.419,10562
15.4253,10365
15.4316,9914
15.4379,9288
15.4443,7963
15.4506,8129
15.4569,8143
15.4632,7924
15.4695,7900
15.4758,8784
15.4821,8875
15.4884,9141
15.4947,10149
15.501,10872
15.5073,14027
15.5137,17025
15.52,18187
15.5263,21716
15.5326,25043
15.5389,27143
15.5452,29400
15.5515,28530
15.5578,27589
15.5641,27296
15.5704,26438
15.5767,22905
15.583,25530
15.5894,26720
15.5957,25837
15.602,25392
15.6083,25426
15.6146,20448
15.6209,18402
15.6272,14860
15.6335,12284
15.6398,11445
15.6461,9684
15.6524,7709
15.6588,7652
15.6651,8535
15.6714,8523
15.6777,9811
15.684,10094
15.6903,10803
15.6966,13907
15.7029,15266
15.7092,14427
15.7155,16031
15.7218,16280
15.7281,14579
15.7345,12962
15.7408,10694
15.7471,12040
15.7534,7556
15.7597,8737
15.766,6749
15.7723,7938
15.7786,8522
15.7849,8096
15.7912,9171
15.7975,9613
15.8038,10144
15.8102,8862
15.8165,11107
15.8228,8695
15.8291,10580
15.8354,9244
15.8417,8848
15.848,6815
15.8543,7224
15.8606,6651
15.8669,6982
15.8732,6866
15.8796,6484
15.8859,7444
15.8922,7227
15.8985,5867
15.9048,6798
15.9111,6861
15.9174,6575
15.9237,6922
15.93,7495
15.9363,6240
15.9426,6613
15.9489,6845
15.9553,7086
15.9616,7675
15.9679,7639
15.9742,7114
15.9805,5985
15.9868,9828
15.9931,8619
15.9994,9008
16.0057,7699
16.012,10003
16.0183,8959
16.0247,8679
16.031,10587
16.0373,10551
16.0436,10320
16.0499,11974
16.0562,14078
16.0625,14235
16.0688,16825
16.0751,19487
16.0814,22244
16.0877,22084
16.094,21338
16.1003,20733
16.1066,19264
16.113,17139
16.1193,10369
16.1256,10078
16.1319,7451
16.1382,7737
16.1445,6517
16.1508,5942
16.1571,6693
16.1634,6737
16.1697,6668
16.1761,6843
16.1824,7182
16.1887,7113
16.195,7338
16.2013,6772
16.2076,8309
16.2139,9388
16.2202,8956
16.2265,10935
16.2328,12171
16.2391,11396
16.2455,13739
16.2518,14990
16.2581,17451
16.2644,20752
16.2707,19656
16.277,20268
16.2833,19949
16.2896,19206
16.2959,17078
16.3022,12527
16.3085,11467
16.3148,18910
16.3211,36120
16.3274,56545
16.3338,86879
16.3401,110360
16.3464,119322
16.3527,129913
16.359,122401
16.3653,120437
16.3716,108765
16.3779,92858
16.3842,83220
16.3906,70464
16.3969,55537
16.4032,50952
16.4095,42392
16.4158,35809
16.4221,33164
16.4284,27909
16.4347,24720
16.441,22625
16.4473,19662
16.4536,18381
16.4599,16877
16.4662,17171
16.4725,16720
16.4789,13734
16.4852,13767
16.4915,12105
16.4978,13755
16.5041,13506
16.5104,14238
16.5167,13094
16.523,11196
16.5293,13205
16.5357,12603
16.542,12052
16.5483,12768
16.5546,11075
16.5609,11939
16.5672,10322
16.5735,9774
16.5798,8601
16.5861,7926
16.5924,8909
16.5987,11061
16.605,11210
16.6114,11655
16.6177,13635
16.624,13947
16.6303,17412
16.6366,17541
16.6429,18065
16.6492,18436
16.6555,18413
16.6618,15158
16.6681,14851
16.6744,13678
16.6807,13356
16.687,10561
16.6933,10853
16.6997,11688
16.706,10955
16.7123,12112
16.7186,11808
16.7249,12014
16.7312,11516
16.7375,10226
16.7438,8430
16.7501,10512
16.7565,9147
16.7628,8797
16.7691,8989
16.7754,10318
16.7817,10496
16.788,11245
16.7943,10421
16.8006,10480
16.8069,10643
16.8132,10772
16.8195,11730
16.8258,11519
16.8321,11437
16.8385,12226
16.8448,10799
16.8511,11316
16.8574,9729
16.8637,7453
16.87,8612
16.8763,7021
16.8826,8450
16.8889,7101
16.8952,9219
16.9016,7784
16.9079,9555
16.9142,9593
16.9205,12207
16.9268,13369
16.9331,12959
16.9394,16444
16.9457,14210
16.952,15620
16.9583,15724
16.9646,14751
16.9709,13701
16.9773,10913
16.9836,11684
16.9899,14121
16.9962,13148
17.0025,12335
17.0088,14737
17.0151,16028
17.0214,15978
17.0277,16219
17.034,15335
17.0403,14619
17.0467,15853
17.0529,15017
17.0593,14621
17.0656,13014
17.0719,14851
17.0782,15943
17.0845,12926
17.0908,13996
17.0971,11801
17.1034,11929
17.1097,13002
17.116,14721
17.1224,18819
17.1287,25241
17.135,32425
17.1413,45308
17.1476,57867
17.1539,68022
17.1602,84548
17.1665,92195
17.1728,99392
17.1791,101231
17.1854,101566
17.1917,89631
17.198,77643
17.2044,64798
17.2107,44541
17.217,37491
17.2233,24431
17.2296,19306
17.2359,19214
17.2422,15672
17.2485,11606
17.2548,10655
17.2611,11072
17.2675,9592
17.2738,10423
17.2801,8344
17.2864,8908
17.2927,8666
17.299,6015
17.3053,6627
17.3116,7276
17.3179,7222
17.3242,6489
17.3305,5703
17.3368,6749
17.3432,7528
17.3495,6227
17.3558,7995
17.3621,12101
17.3684,18170
17.3747,30993
17.381,51303
17.3873,82435
17.3936,129895
17.3999,190815
17.4062,261868
17.4126,342986
17.4189,420326
17.4252,475843
17.4315,521438
17.4378,513037
17.4441,503518
17.4504,437662
17.4567,377876
17.463,288802
17.4693,208280
17.4756,132338
17.4819,77290
17.4883,44908
17.4946,28032
17.5009,21032
17.5072,16917
17.5135,14109
17.5198,11945
17.5261,12980
17.5324,10278
17.5387,10009
17.545,10480
17.5513,11090
17.5576,12942
17.564,12947
17.5703,12521
17.5766,13890
17.5829,13900
17.5892,11414
17.5955,12811
17.6018,11573
17.6081,9193
17.6144,10686
17.6207,10743
17.627,10328
17.6334,8105
17.6397,8688
17.646,8400
17.6523,8882
17.6586,9582
17.6649,10748
17.6712,10569
17.6775,11881
17.6838,15770
17.6901,17659
17.6964,22189
17.7027,26073
17.7091,32273
17.7154,37174
17.7217,41250
17.728,50212
17.7343,50821
17.7406,53548
17.7469,52843
17.7532,50610
17.7595,45080
17.7658,38056
17.7721,30864
17.7784,26475
17.7848,22886
17.7911,21801
17.7974,18955
17.8037,18802
17.81,17810
17.8163,20234
17.8226,20720
17.8289,20472
17.8352,23737
17.8415,26590
17.8478,27324
17.8542,30032
17.8605,34598
17.8668,37445
17.8731,41409
17.8794,43043
17.8857,46585
17.892,46216
17.8983,46663
17.9046,46583
17.9109,43769
17.9172,40922
17.9236,34403
17.9299,29818
17.9362,27520
17.9425,20383
17.9488,18950
17.9551,16368
17.9614,14982
17.9677,12994
17.974,12409
17.9803,12822
17.9866,12978
17.9929,11453
17.9993,11183
18.0055,13843
18.0119,22745
18.0182,36804
18.0245,77484
18.0308,164602
18.0371,327065
18.0434,659702
18.0497,1195603
18.056,1959672
18.0623,3024300
18.0686,4181019
18.075,5442780
18.0813,6700961
18.0876,8094432
18.0939,9365634
18.1002,10589031
18.1065,11767331
18.1128,12338480
18.1191,11843458
18.1254,10435572
18.1317,8248055
18.138,5500717
18.1443,3277463
18.1507,1749508
18.157,907101
18.1633,517594
18.1696,396329
18.1759,417815
18.1822,503007
18.1885,646645
18.1948,866922
18.2011,1057987
18.2074,1325965
18.2137,1505252
18.2201,1672062
18.2264,1784269
18.2327,1786824
18.239,1631050
18.2453,1445102
18.2516,1179780
18.2579,867496
18.2642,579185
18.2705,356945
18.2768,200147
18.2831,118494
18.2895,76980
18.2958,58118
18.3021,53296
18.3084,47304
18.3147,47431
18.321,45606
18.3273,46873
18.3336,45437
18.3399,50080
18.3462,47272
18.3525,45251
18.3588,47492
18.3652,50218
18.3714,48379
18.3778,48420
18.3841,44998
18.3904,42035
18.3967,37681
18.403,32676
18.4093,32208
18.4156,30330
18.4219,28341
18.4282,27933
18.4346,26322
18.4409,23963
18.4472,23846
18.4535,22470
18.4598,21683
18.4661,21470
18.4724,22185
18.4787,20747
18.485,20151
18.4913,21179
18.4976,20879
18.5039,20262
18.5102,20782
18.5166,22681
18.5229,26349
18.5292,26546
18.5355,27359
18.5418,29534
18.5481,29583
18.5544,32841
18.5607,35842
18.567,38805
18.5733,37748
18.5796,38959
18.586,36336
18.5923,35759
18.5986,35292
18.6049,33927
18.6112,30325
18.6175,30646
18.6238,32311
18.6301,26458
18.6364,26592
18.6427,24905
18.649,21758
18.6554,20887
18.6617,18741
18.668,18055
18.6743,17624
18.6806,15762
18.6869,15745
18.6932,15861
18.6995,15827
18.7058,16354
18.7121,17289
18.7184,15558
18.7247,17051
18.7311,16406
18.7373,17486
18.7437,18042
18.75,18511
18.7563,19086
18.7626,18926
18.7689,18310
18.7752,18393
18.7815,18778
18.7878,17975
18.7941,16105
18.8005,19890
18.8068,17966
18.8131,19211
18.8194,21512
18.8257,26234
18.832,30361
18.8383,37716
18.8446,49772
18.8509,58185
18.8572,67555
18.8635,78685
18.8698,90006
18.8762,93542
18.8825,102949
18.8888,100323
18.8951,100179
18.9014,91639
18.9077,80708
18.914,68349
18.9203,51356
18.9266,41875
18.9329,33590
18.9392,25164
18.9456,22203
18.9519,19826
18.9582,19622
18.9645,20397
18.9708,16610
18.9771,19526
18.9834,17636
18.9897,17699
18.996,17736
19.0023,18120
19.0086,18368
19.0149,16815
19.0213,18846
19.0276,20960
19.0339,23623
19.0402,30116
19.0465,44187
19.0528,63211
19.0591,91351
19.0654,125331
19.0717,167319
19.078,202806
19.0843,245110
19.0906,288431
19.097,320815
19.1032,350717
19.1096,376488
19.1159,371621
19.1222,344205
19.1285,298346
19.1348,254247
19.1411,190101
19.1474,134354
19.1537,92462
19.16,64497
19.1664,50413
19.1727,39072
19.179,39104
19.1853,31217
19.1916,31192
19.1979,28696
19.2042,28299
19.2105,25383
19.2168,25598
19.2231,25206
19.2294,26658
19.2357,26664
19.2421,27255
19.2484,28104
19.2547,31162
19.261,31981
19.2673,34354
19.2736,34648
19.2799,35017
19.2862,33449
19.2925,35106
19.2988,39848
19.3051,36520
19.3115,34702
19.3178,32243
19.3241,32677
19.3304,30559
19.3367,28241
19.343,23548
19.3493,21917
19.3556,21612
19.3619,20021
19.3682,19031
19.3745,17713
19.3808,17331
19.3872,17513
19.3935,16925
19.3998,16424
19.4061,16823
19.4124,16225
19.4187,15906
19.425,15043
19.4313,12958
19.4376,14438
19.4439,13269
19.4502,13787
19.4565,13137
19.4629,14667
19.4692,12826
19.4755,17241
19.4818,15922
19.4881,18728
19.4944,21531
19.5007,25838
19.507,28940
19.5133,31713
19.5196,36732
19.5259,37741
19.5323,41372
19.5386,45742
19.5449,43440
19.5512,42252
19.5575,43298
19.5638,38179
19.5701,33475
19.5764,29689
19.5827,24868
19.589,21132
19.5953,21268
19.6016,22905
19.608,29428
19.6143,40907
19.6206,56455
19.6269,74372
19.6332,108643
19.6395,137641
19.6458,184327
19.6521,232434
19.6584,282362
19.6647,331994
19.671,367591
19.6774,405733
19.6837,432944
19.69,445778
19.6963,457293
19.7026,430010
19.7089,386587
19.7152,323146
19.7215,260673
19.7278,190911
19.7341,133528
19.7404,92888
19.7467,60938
19.7531,47700
19.7594,36809
19.7657,29768
19.772,24986
19.7783,24048
19.7846,24642
19.7909,22982
19.7972,23788
19.8035,30058
19.8098,42128
19.8161,73813
19.8225,122892
19.8287,204705
19.8351,338430
19.8414,508643
19.8477,746183
19.854,988421
19.8603,1312397
19.8666,1627102
19.8729,2029515
19.8792,2395449
19.8855,2808201
19.8918,3278727
19.8982,3661759
19.9045,3927955
19.9108,4007600
19.9171,3612914
19.9234,2920023
19.9297,2025352
19.936,1260555
19.9423,761302
19.9486,519749
19.9549,436527
19.9612,438916
19.9675,505167
19.9739,567339
19.9802,631470
19.9865,693360
19.9928,754639
19.9991,841640
20.0054,933585
20.0117,1037319
20.018,1134653
20.0243,1250678
20.0306,1363813
20.0369,1482576
20.0433,1590231
20.0496,1682970
20.0559,1718498
20.0622,1655093
20.0685,1538830
20.0748,1422595
20.0811,1265579
20.0874,1107132
20.0937,904093
20.1,695620
20.1063,491046
20.1126,349992
20.119,243256
20.1253,184634
20.1316,148796
20.1379,127462
20.1442,115982
20.1505,110411
20.1568,103072
20.1631,102939
20.1694,106356
20.1757,118769
20.182,132984
20.1884,158545
20.1946,193722
20.201,233634
20.2073,273710
20.2136,313203
20.2199,359653
20.2262,404119
20.2325,444432
20.2388,457216
20.2451,449680
20.2514,428756
20.2577,378138
20.2641,330797
20.2704,272016
20.2767,198046
20.283,149104
20.2893,105878
20.2956,82011
20.3019,66888
20.3082,58001
20.3145,51866
20.3208,54250
20.3271,51400
20.3335,48138
20.3398,47358
20.3461,47637
20.3524,47812
20.3587,49838
20.365,54402
20.3713,59252
20.3776,66120
20.3839,77822
20.3902,88159
20.3965,102608
20.4028,119208
20.4092,133650
20.4155,151105
20.4218,165464
20.4281,173636
20.4344,179572
20.4407,173574
20.447,168125
20.4533,149612
20.4596,125822
20.4659,102152
20.4722,75513
20.4785,60627
20.4849,50735
20.4912,40507
20.4975,36389
20.5038,33880
20.5101,34351
20.5164,34897
20.5227,34247
20.529,34420
20.5353,32460
20.5416,35739
20.5479,33255
20.5543,32337
20.5605,34338
20.5669,37139
20.5732,37952
20.5795,40231
20.5858,39440
20.5921,43184
20.5984,42563
20.6047,44155
20.611,46147
20.6173,46166
20.6236,43985
20.63,42123
20.6363,39946
20.6426,34503
20.6489,34025
20.6552,30157
20.6615,25114
20.6678,25761
20.6741,22112
20.6804,21161
20.6867,21836
20.693,19820
20.6994,21310
20.7057,21822
20.712,20979
20.7183,22894
20.7246,24160
20.7309,21231
20.7372,23911
20.7435,23643
20.7498,23216
20.7561,25488
20.7624,25974
20.7687,24401
20.7751,26319
20.7814,25887
20.7877,25453
20.794,24778
20.8003,25189
20.8066,28985
20.8129,33525
20.8192,44080
20.8255,56854
20.8318,82241
20.8381,119522
20.8445,168060
20.8508,214253
20.8571,280942
20.8634,340927
20.8697,388960
20.876,469305
20.8823,517733
20.8886,565621
20.8949,592552
20.9012,590541
20.9075,552800
20.9138,478559
20.9202,393940
20.9265,297845
20.9328,213429
20.9391,139647
20.9454,96726
20.9517,75568
20.958,64198
20.9643,59917
20.9706,69267
20.9769,80017
20.9832,88250
20.9895,97077
20.9959,105415
21.0022,117543
21.0085,124707
21.0148,129744
21.0211,130545
21.0274,122367
21.0337,112518
21.04,103343
21.0463,102264
21.0526,107122
21.0589,135134
21.0653,180145
21.0716,261626
21.0779,363282
21.0842,499622
21.0905,651963
21.0968,804406
21.1031,995302
21.1094,1137530
21.1157,1309099
21.122,1415070
21.1283,1505316
21.1346,1534310
21.141,1435203
21.1473,1243783
21.1536,1023544
21.1599,763899
21.1662,518114
21.1725,338589
21.1788,198122
21.1851,118258
21.1914,66463
21.1977,47968
21.204,34111
21.2104,30658
21.2167,28113
21.223,26029
21.2293,29972
21.2356,31510
21.2419,31551
21.2482,34796
21.2545,40372
21.2608,40624
21.2671,42844
21.2734,47112
21.2797,49764
21.286,51074
21.2924,49561
21.2987,45644
21.305,48090
21.3113,43095
21.3176,43045
21.3239,40032
21.3302,34265
21.3365,30051
21.3428,32110
21.3491,31634
21.3554,34297
21.3618,36133
21.3681,42077
21.3744,43687
21.3807,45336
21.387,49224
21.3933,53360
21.3996,50514
21.4059,50772
21.4122,47186
21.4185,43442
21.4248,39632
21.4312,36940
21.4375,30493
21.4438,21817
21.4501,18561
21.4564,15114
21.4627,13658
21.469,15155
21.4753,13755
21.4816,13438
21.4879,14377
21.4942,14670
21.5005,16346
21.5069,14825
21.5132,15226
21.5195,16032
21.5258,15053
21.5321,16662
21.5384,18997
21.5447,17621
21.551,18427
21.5573,21153
21.5636,23050
21.5699,20553
21.5763,23533
21.5826,21820
21.5889,26452
21.5952,23616
21.6015,25791
21.6078,25253
21.6141,26671
21.6204,27025
21.6267,26507
21.633,25564
21.6393,27755
21.6456,25554
21.6519,25749
21.6583,23381
21.6646,21223
21.6709,18433
21.6772,17056
21.6835,17351
21.6898,17108
21.6961,17713
21.7024,17337
21.7087,15804
21.715,17380
21.7214,16365
21.7277,17906
21.734,15169
21.7403,16613
21.7466,14504
21.7529,16368
21.7592,17587
21.7655,16540
21.7718,15334
21.7781,17999
21.7844,17398
21.7907,15400
21.7971,18057
21.8034,20870
21.8097,21689
21.816,24010
21.8223,26393
21.8286,27404
21.8349,29540
21.8412,33766
21.8475,38672
21.8538,43141
21.8601,43931
21.8664,42851
21.8728,46324
21.8791,48514
21.8854,44397
21.8917,42581
21.898,38361
21.9043,32718
21.9106,29114
21.9169,23272
21.9232,24189
21.9295,22843
21.9358,21034
21.9422,23597
21.9485,24476
21.9548,29518
21.9611,32511
21.9674,37708
21.9737,38913
21.98,43791
21.9863,45969
21.9926,45678
21.9989,48142
22.0052,48552
22.0115,44198
22.0179,40757
22.0242,34510
22.0305,31280
22.0368,24551
22.0431,19359
22.0494,19606
22.0557,17797
22.062,16318
22.0683,14822
22.0746,12447
22.0809,12370
22.0873,10938
22.0936,11362
22.0999,10384
22.1062,12845
22.1125,12167
22.1188,11699
22.1251,12544
22.1314,13135
22.1377,13936
22.144,13242
22.1503,13217
22.1566,14791
22.163,14889
22.1693,15456
22.1756,16460
22.1819,19129
22.1882,19285
22.1945,21591
22.2008,22110
22.2071,22366
22.2134,24663
22.2197,27512
22.226,29722
22.2324,31534
22.2387,33019
22.245,30617
22.2513,34254
22.2576,30584
22.2639,29394
22.2702,30172
22.2765,29101
22.2828,27809
22.2891,26981
22.2954,26407
22.3017,25443
22.3081,25074
22.3144,25055
22.3207,26093
22.327,24703
22.3333,24376
22.3396,21145
22.3459,21935
22.3522,21831
22.3585,20727
22.3648,18159
22.3711,18886
22.3774,17493
22.3838,16257
22.3901,16485
22.3964,15090
22.4027,15689
22.409,13216
22.4153,14811
22.4216,12299
22.4279,13352
22.4342,12443
22.4405,12955
22.4468,14353
22.4532,13903
22.4595,14505
22.4658,15037
22.4721,17354
22.4784,18941
22.4847,22039
22.491,26127
22.4973,29903
22.5036,40026
22.5099,47407
22.5162,59817
22.5225,73905
22.5289,89891
22.5352,105195
22.5415,120410
22.5478,140180
22.5541,159395
22.5604,183176
22.5667,189549
22.573,196845
22.5793,202841
22.5856,199411
22.5919,182164
22.5983,164026
22.6046,129591
22.6109,99190
22.6172,70267
22.6235,55343
22.6298,43113
22.6361,33827
22.6424,29159
22.6487,28308
22.655,29876
22.6613,32126
22.6676,33105
22.674,38758
22.6803,40679
22.6866,40377
22.6929,47121
22.6992,51185
22.7055,53658
22.7118,53917
22.7181,60095
22.7244,57587
22.7307,55162
22.737,50928
22.7434,45870
22.7497,34957
22.756,27915
22.7623,25047
22.7686,22305
22.7749,20845
22.7812,20102
22.7875,17754
22.7938,21811
22.8001,20614
22.8064,21154
22.8127,21101
22.8191,20896
22.8254,18506
22.8317,18207
22.838,18901
22.8443,17595
22.8506,17082
22.8569,14746
22.8632,14753
22.8695,14965
22.8758,13780
22.8821,12984
22.8884,12960
22.8948,14563
22.9011,15560
22.9074,13604
22.9137,13048
22.92,13620
22.9263,13303
22.9326,14035
22.9389,12861
22.9452,12149
22.9515,10912
22.9578,10923
22.9642,10872
22.9705,12196
22.9768,11866
22.9831,9396
22.9894,11058
22.9957,10244
23.002,9977
23.0083,9599
23.0146,12800
23.0209,11907
23.0272,13113
23.0335,12716
23.0399,12325
23.0462,13582
23.0525,16316
23.0588,15995
23.0651,17057
23.0714,16283
23.0777,18297
23.084,19030
23.0903,19200
23.0966,18914
23.1029,21730
23.1092,18642
23.1156,16211
23.1219,17816
23.1282,16116
23.1345,17435
23.1408,15696
23.1471,15351
23.1534,13276
23.1597,11953
23.166,12443
23.1723,12106
23.1786,13744
23.185,13587
23.1913,13008
23.1976,12528
23.2039,14312
23.2102,13055
23.2165,12695
23.2228,14362
23.2291,13503
23.2354,14004
23.2417,11741
23.248,14327
23.2543,13031
23.2607,11128
23.267,10607
23.2733,10010
23.2796,11162
23.2859,10779
23.2922,11335
23.2985,11397
23.3048,10309
23.3111,12477
23.3174,12186
23.3237,9312
23.3301,12098
23.3363,11014
23.3427,12268
23.349,10557
23.3553,10580
23.3616,11115
23.3679,11669
23.3742,12017
23.3805,11567
23.3868,9837
23.3931,13457
23.3994,11873
23.4058,12768
23.4121,11926
23.4184,11388
23.4247,12357
23.431,12531
23.4373,11598
23.4436,12799
23.4499,11797
23.4562,9294
23.4625,12304
23.4688,12978
23.4752,14023
23.4815,14895
23.4878,15161
23.4941,20178
23.5004,19704
23.5067,22638
23.513,25852
23.5193,29745
23.5256,29567
23.5319,30025
23.5382,34494
23.5445,34725
23.5509,37091
23.5572,31830
23.5635,29295
23.5698,27422
23.5761,25378
23.5824,20596
23.5887,16844
23.595,14318
23.6013,14937
23.6076,11920
23.6139,10327
23.6203,11798
23.6266,12911
23.6329,11709
23.6392,12464
23.6455,10450
23.6518,11689
23.6581,9070
23.6644,10448
23.6707,10522
23.677,10312
23.6833,11423
23.6896,9832
23.696,10077
23.7022,8889
23.7086,11346
23.7149,10968
23.7212,10826
23.7275,9084
23.7338,9380
23.7401,9839
23.7464,9346
23.7527,9529
23.759,8749
23.7653,8670
23.7717,8278
23.778,10073
23.7843,8672
23.7906,10956
23.7969,14667
23.8032,15564
23.8095,17486
23.8158,18755
23.8221,21513
23.8284,22123
23.8347,24944
23.8411,25058
23.8474,27277
23.8537,28563
23.86,29951
23.8663,27632
23.8726,29005
23.8789,26105
23.8852,25610
23.8915,21063
23.8978,16968
23.9041,15991
23.9104,14015
23.9168,14495
23.9231,11640
23.9294,11067
23.9357,10541
23.942,12423
23.9483,11716
23.9546,13096
23.9609,14778
23.9672,16249
23.9735,16958
23.9798,19703
23.9862,26780
23.9925,34876
23.9988,41635
24.0051,49087
24.0114,63224
24.0177,77329
24.024,92557
24.0303,108246
24.0366,130813
24.0429,149213
24.0492,167731
24.0555,184692
24.0619,193697
24.0682,194434
24.0745,197059
24.0808,176536
24.0871,157327
24.0934,127049
24.0997,101334
24.106,73845
24.1123,56881
24.1186,43387
24.1249,32005
24.1313,26054
24.1376,24110
24.1439,21706
24.1502,19117
24.1565,17427
24.1628,19232
24.1691,17408
24.1754,20087
24.1817,16656
24.188,19466
24.1943,20414
24.2006,21891
24.207,22477
24.2133,26498
24.2196,28441
24.2259,26505
24.2322,30749
24.2385,33867
24.2448,34021
24.2511,37850
24.2574,36696
24.2637,38077
24.27,36561
24.2763,32953
24.2827,29403
24.289,20109
24.2953,19133
24.3016,14481
24.3079,13818
24.3142,13101
24.3205,12364
24.3268,15453
24.3331,11295
24.3394,12054
24.3457,11086
24.3521,12136
24.3584,10600
24.3647,12124
24.371,11025
24.3773,12581
24.3836,10785
24.3899,10504
24.3962,10529
24.4025,12877
24.4088,12984
24.4151,12544
24.4214,12742
24.4278,13229
24.4341,12323
24.4404,14473
24.4467,12330
24.453,13111
24.4593,13740
24.4656,14747
24.4719,14115
24.4782,14026
24.4845,15569
24.4908,13770
24.4972,15330
24.5035,14781
24.5098,15374
24.5161,15202
24.5224,13328
24.5287,13292
24.535,14957
24.5413,12559
24.5476,11855
24.5539,12472
24.5602,12564
24.5665,10780
24.5729,11450
24.5792,9939
24.5855,10982
24.5918,10315
24.5981,10964
24.6044,10019
24.6107,10749
24.617,11243
24.6233,8014
24.6296,10317
24.6359,11420
24.6422,11192
24.6486,9500
24.6549,9600
24.6612,8169
24.6675,8249
24.6738,8410
24.6801,9926
24.6864,7328
24.6927,7474
24.699,9028
24.7053,7590
24.7116,8750
24.718,8313
24.7243,10204
24.7306,7630
24.7369,7734
24.7432,11258
24.7495,10527
24.7558,12013
24.7621,14915
24.7684,18555
24.7747,23988
24.781,30621
24.7873,43020
24.7937,58265
24.8,74503
24.8063,95841
24.8126,117064
24.8189,138562
24.8252,168635
24.8315,183944
24.8378,214470
24.8441,228764
24.8504,247608
24.8567,269463
24.8631,285112
24.8694,274046
24.8757,256685
24.882,222909
24.8883,177911
24.8946,128560
24.9009,86614
24.9072,55445
24.9135,35265
24.9198,23782
24.9261,18032
24.9324,15517
24.9388,13617
24.9451,13324
24.9514,10988
24.9577,12793
24.964,12216
24.9703,12399
24.9766,12024
24.9829,9725
24.9892,11912
24.9955,12297
25.0018,12161
25.0082,12994
25.0145,13307
25.0208,15276
25.0271,16758
25.0334,17594
25.0397,18253
25.046,20543
25.0523,22527
25.0586,22579
25.0649,23152
25.0712,22649
25.0775,26806
25.0839,22996
25.0902,21386
25.0965,20749
25.1028,18968
25.1091,15043
25.1154,16965
25.1217,14664
25.128,12092
25.1343,10818
25.1406,9270
25.1469,9832
25.1532,8630
25.1596,10393
25.1659,10066
25.1722,9678
25.1785,9384
25.1848,9026
25.1911,11052
25.1974,10529
25.2037,17021
25.21,17540
25.2163,22335
25.2226,29708
25.229,34593
25.2353,46587
25.2416,58825
25.2479,70409
25.2542,83448
25.2605,103394
25.2668,120816
25.2731,134291
25.2794,141766
25.2857,162751
25.292,163321
25.2983,159309
25.3047,146863
25.311,118753
25.3173,89549
25.3236,62715
25.3299,41608
25.3362,25537
25.3425,19225
25.3488,14781
25.3551,12644
25.3614,11444
25.3677,9518
25.3741,11272
25.3804,11033
25.3867,12510
25.393,10608
25.3993,12785
25.4056,12832
25.4119,13708
25.4182,11280
25.4245,12498
25.4308,12265
25.4371,13206
25.4434,13560
25.4498,12882
25.4561,13928
25.4624,15182
25.4687,17033
25.475,17168
25.4813,18678
25.4876,18547
25.4939,17016
25.5002,18758
25.5065,20507
25.5128,23505
25.5192,22804
25.5255,27438
25.5318,27470
25.5381,26704
25.5444,31005
25.5507,32446
25.557,29606
25.5633,32950
25.5696,35035
25.5759,32213
25.5822,27061
25.5885,24948
25.5949,20507
25.6012,15621
25.6075,16109
25.6138,12635
25.6201,12568
25.6264,10935
25.6327,11719
25.639,10076
25.6453,9207
25.6516,12206
25.6579,9809
25.6642,11591
25.6706,11801
25.6769,12762
25.6832,13069
25.6895,14865
25.6958,17045
25.7021,17659
25.7084,20803
25.7147,22315
25.721,24381
25.7273,29619
25.7336,33388
25.74,43757
25.7463,48081
25.7526,60273
25.7589,69609
25.7652,80030
25.7715,89603
25.7778,97047
25.7841,106104
25.7904,108066
25.7967,111278
25.803,105364
25.8093,98589
25.8157,81337
25.822,65590
25.8283,53786
25.8346,41037
25.8409,38674
25.8472,31757
25.8535,31185
25.8598,30402
25.8661,27444
25.8724,25137
25.8787,24962
25.8851,24601
25.8914,24522
25.8977,23688
25.904,24782
25.9103,21111
25.9166,21639
25.9229,19008
25.9292,19981
25.9355,20141
25.9418,21524
25.9481,21747
25.9544,21141
25.9608,19554
25.9671,18062
25.9734,18453
25.9797,15005
25.986,15412
25.9923,14387
25.9986,14840
26.0049,16777
26.0112,16699
26.0175,13805
26.0238,15583
26.0302,15474
26.0365,13244
26.0428,14924
26.0491,13325
26.0554,13853
26.0617,14163
26.068,13118
26.0743,14760
26.0806,12106
26.0869,13742
26.0932,14112
26.0995,13837
26.1059,13871
26.1122,15337
26.1185,14384
26.1248,13901
26.1311,14963
26.1374,15396
26.1437,14080
26.15,15164
26.1563,15019
26.1626,15514
26.1689,16090
26.1752,17985
26.1816,15348
26.1879,16582
26.1942,17622
26.2005,19323
26.2068,18701
26.2131,18554
26.2194,13871
26.2257,13570
26.232,12614
26.2383,14359
26.2446,13119
26.251,14020
26.2573,15606
26.2636,14108
26.2699,15319
26.2762,16289
26.2825,16697
26.2888,17887
26.2951,20271
26.3014,25901
26.3077,25458
26.314,31129
26.3203,31981
26.3267,32995
26.333,33484
26.3393,37950
26.3456,40039
26.3519,38850
26.3582,39484
26.3645,36458
26.3708,29220
26.3771,27991
26.3834,27198
26.3897,26632
26.3961,25446
26.4024,29665
26.4087,29669
26.415,31628
26.4213,34663
26.4276,36037
26.4339,31466
26.4402,32328
26.4465,27947
26.4528,20744
26.4591,19851
26.4654,19094
26.4718,15482
26.4781,15108
26.4844,13849
26.4907,13076
26.497,15274
26.5033,15171
26.5096,15110
26.5159,18233
26.5222,17223
26.5285,21630
26.5348,24314
26.5411,28984
26.5475,27006
26.5538,33803
26.5601,35050
26.5664,39517
26.5727,47545
26.579,49902
26.5853,58009
26.5916,57686
26.5979,56853
26.6042,56068
26.6105,55085
26.6169,44589
26.6232,32081
26.6295,23257
26.6358,19791
26.6421,19569
26.6484,19296
26.6547,21615
26.661,20037
26.6673,20949
26.6736,23296
26.6799,24213
26.6862,24404
26.6926,25600
26.6989,24409
26.7052,21599
26.7115,18501
26.7178,16434
26.7241,15397
26.7304,14936
26.7367,13802
26.743,13696
26.7493,15415
26.7556,12851
26.762,12406
26.7683,13234
26.7746,12814
26.7809,13146
26.7872,14296
26.7935,13715
26.7998,13163
26.8061,14122
26.8124,12384
26.8187,13342
26.825,17014
26.8313,15242
26.8377,17627
26.844,18826
26.8503,19546
26.8566,22706
26.8629,23402
26.8692,26622
26.8755,24592
26.8818,22427
26.8881,17055
26.8944,13551
26.9007,11189
26.9071,10400
26.9134,9230
26.9197,10757
26.926,10479
26.9323,11607
26.9386,11967
26.9449,13462
26.9512,10986
26.9575,12874
26.9638,12447
26.9701,14757
26.9764,14633
26.9828,14602
26.9891,15342
26.9954,16107
27.0017,13395
27.008,15612
27.0143,14005
27.0206,15004
27.0269,14664
27.0332,17587
27.0395,18037
27.0458,18148
27.0521,18547
27.0585,15709
27.0648,17000
27.0711,16478
27.0774,16455
27.0837,17291
27.09,20788
27.0963,23336
27.1026,24176
27.1089,22288
27.1152,20849
27.1215,21693
27.1279,23603
27.1342,25202
27.1405,26811
27.1468,30790
27.1531,35288
27.1594,40654
27.1657,44980
27.172,52084
27.1783,49151
27.1846,41272
27.1909,30028
27.1972,22704
27.2036,21688
27.2099,20150
27.2162,18427
27.2225,16514
27.2288,15017
27.2351,13463
27.2414,11517
27.2477,11619
27.254,8835
27.2603,12054
27.2666,10222
27.273,10939
27.2793,11030
27.2856,11944
27.2919,11823
27.2982,14249
27.3045,15001
27.3108,15837
27.3171,20303
27.3234,23101
27.3297,25271
27.336,25782
27.3423,27360
27.3487,24071
27.355,20007
27.3613,18705
27.3676,18198
27.3739,17129
27.3802,19105
27.3865,18216
27.3928,21487
27.3991,21102
27.4054,19350
27.4117,19369
27.4181,17741
27.4244,18715
27.4307,19281
27.437,16581
27.4433,17498
27.4496,16417
27.4559,19254
27.4622,21048
27.4685,24332
27.4748,23859
27.4811,31730
27.4874,33477
27.4938,39611
27.5001,38499
27.5064,32800
27.5127,27026
27.519,23814
27.5253,23952
27.5316,24075
27.5379,23909
27.5442,21287
27.5505,22179
27.5568,20258
27.5631,19951
27.5695,20133
27.5758,20245
27.5821,25478
27.5884,27271
27.5947,28081
27.601,35224
27.6073,42049
27.6136,52316
27.6199,67194
27.6262,78783
27.6325,81314
27.6389,74141
27.6452,55584
27.6515,45976
27.6578,38568
27.6641,35339
27.6704,34642
27.6767,26452
27.683,23221
27.6893,19986
27.6956,16789
27.7019,16168
27.7082,15033
27.7146,16186
27.7209,16496
27.7272,19964
27.7335,19793
27.7398,19932
27.7461,24177
27.7524,28541
27.7587,44113
27.765,60033
27.7713,79851
27.7776,111779
27.784,146111
27.7903,194641
27.7966,261842
27.8029,348159
27.8092,421447
27.8155,451747
27.8218,373659
27.8281,256957
27.8344,145232
27.8407,77944
27.847,41945
27.8533,24368
27.8597,23399
27.866,21315
27.8723,19626
27.8786,19907
27.8849,20838
27.8912,22426
27.8975,22086
27.9038,24094
27.9101,24659
27.9164,27722
27.9227,29323
27.9291,31492
27.9354,27066
27.9417,22937
27.948,19925
27.9543,16004
27.9606,16286
27.9669,15610
27.9732,15957
27.9795,18403
27.9858,20889
27.9921,19654
27.9984,21273
28.0048,19345
28.0111,24111
28.0174,24468
28.0237,27190
28.03,26801
28.0363,24061
28.0426,24663
28.0489,22220
28.0552,22402
28.0615,22163
28.0678,23189
28.0741,21112
28.0805,26577
28.0868,26108
28.0931,24808
28.0994,18240
28.1057,19321
28.112,16505
28.1183,19671
28.1246,19303
28.1309,19934
28.1372,18652
28.1435,22996
28.1499,24941
28.1562,27372
28.1625,34349
28.1688,42066
28.1751,52934
28.1814,69776
28.1877,73762
28.194,62805
28.2003,39489
28.2066,25053
28.2129,18861
28.2192,17961
28.2256,17373
28.2319,19422
28.2382,15958
28.2445,17763
28.2508,18957
28.2571,18196
28.2634,19275
28.2697,16651
28.276,16071
28.2823,15515
28.2886,13609
28.295,12081
28.3013,12885
28.3076,13032
28.3139,13921
28.3202,12557
28.3265,13122
28.3328,12586
28.3391,11909
28.3454,11132
28.3517,14859
28.358,12535
28.3643,13941
28.3707,14699
28.377,16449
28.3833,15270
28.3896,15013
28.3959,13810
28.4022,13889
28.4085,11760
28.4148,9998
28.4211,11504
28.4274,11929
28.4337,10640
28.44,11987
28.4464,10873
28.4527,11423
28.459,12633
28.4653,11015
28.4716,12734
28.4779,12775
28.4842,11822
28.4905,11391
28.4968,12679
28.5031,15022
28.5094,15184
28.5158,13509
28.5221,12244
28.5284,11968
28.5347,13618
28.541,14703
28.5473,13464
28.5536,12895
28.5599,11398
28.5662,13145
28.5725,11958
28.5788,13977
28.5851,11258
28.5915,12557
28.5978,14685
28.6041,11463
28.6104,13296
28.6167,15170
28.623,16592
28.6293,15456
28.6356,15366
28.6419,18394
28.6482,18619
28.6545,17050
28.6609,13872
28.6672,13846
28.6735,9804
28.6798,10676
28.6861,9679
28.6924,11203
28.6987,11318
28.705,10936
28.7113,11464
28.7176,14014
28.7239,12667
28.7302,13590
28.7366,17105
28.7429,18795
28.7492,19892
28.7555,22292
28.7618,20973
28.7681,22654
28.7744,24787
28.7807,26818
28.787,22625
28.7933,22464
28.7996,17493
28.806,16053
28.8123,14266
28.8186,12565
28.8249,11752
28.8312,11473
28.8375,16692
28.8438,13672
28.8501,14578
28.8564,13021
28.8627,11494
28.869,15591
28.8753,15059
28.8817,15384
28.888,13997
28.8943,12395
28.9006,13487
28.9069,14495
28.9132,17746
28.9195,16749
28.9258,16581
28.9321,16911
28.9384,17091
28.9447,15999
28.951,16278
28.9574,16887
28.9637,17035
28.97,15645
28.9763,17771
28.9826,17163
28.9889,19144
28.9952,19020
29.0015,17814
29.0078,14556
29.0141,14335
29.0204,13286
29.0268,12334
29.0331,11547
29.0394,13618
29.0457,13105
29.052,12275
29.0583,14385
29.0646,14989
29.0709,20251
29.0772,20739
29.0835,22822
29.0898,22029
29.0961,26338
29.1025,25812
29.1088,26105
29.1151,24346
29.1214,19609
29.1277,18117
29.134,17480
29.1403,15833
29.1466,19512
29.1529,19639
29.1592,23409
29.1655,20936
29.1719,21968
29.1782,24623
29.1845,26404
29.1908,28405
29.1971,29789
29.2034,27397
29.2097,24426
29.216,18913
29.2223,15551
29.2286,13927
29.2349,14938
29.2412,14232
29.2476,15487
29.2539,14163
29.2602,14839
29.2665,15090
29.2728,16008
29.2791,15680
29.2854,12825
29.2917,15185
29.298,15813
29.3043,15263
29.3106,16602
29.317,19710
29.3233,22730
29.3296,24237
29.3359,24647
29.3422,22202
29.3485,21705
29.3548,23017
29.3611,25088
29.3674,30574
29.3737,36502
29.38,43791
29.3863,65342
29.3927,100849
29.399,164249
29.4053,215127
29.4116,238482
29.4179,175500
29.4242,100680
29.4305,59663
29.4368,45531
29.4431,41073
29.4494,39777
29.4557,34613
29.462,26263
29.4684,22453
29.4747,21301
29.481,23054
29.4873,23206
29.4936,28506
29.4999,30453
29.5062,24559
29.5125,19331
29.5188,22447
29.5251,22870
29.5314,22611
29.5378,23593
29.5441,25657
29.5504,24445
29.5567,22921
29.563,20238
29.5693,16905
29.5756,17965
29.5819,20871
29.5882,20733
29.5945,23901
29.6008,22074
29.6071,18803
29.6135,21736
29.6198,19539
29.6261,22529
29.6324,26686
29.6387,29293
29.645,28155
29.6513,25854
29.6576,24404
29.6639,20689
29.6702,21587
29.6765,21182
29.6829,23978
29.6892,28331
29.6955,33703
29.7018,47348
29.7081,55281
29.7144,63862
29.7207,58260
29.727,42791
29.7333,28334
29.7396,22971
29.7459,24011
29.7522,29009
29.7586,36931
29.7649,40653
29.7712,43034
29.7775,37174
29.7838,28114
29.7901,22563
29.7964,21430
29.8027,24520
29.809,29518
29.8153,27985
29.8216,25978
29.8279,28318
29.8343,31186
29.8406,37687
29.8469,50601
29.8532,62532
29.8595,76791
29.8658,85036
29.8721,82267
29.8784,55504
29.8847,34570
29.891,29252
29.8973,30166
29.9037,33550
29.91,31324
29.9163,29083
29.9226,24831
29.9289,23438
29.9352,23077
29.9415,24043
29.9478,25011
29.9541,31990
29.9604,37249
29.9667,35121
29.973,31961
29.9794,33825
29.9857,34669
29.992,33968
29.9983,32068
30.0046,30995
30.0109,30682
30.0172,31121
30.0235,25607
30.0298,24827
30.0361,28062
30.0424,31358
30.0488,39642
30.0551,46935
30.0614,50068
30.0677,51215
30.074,44096
30.0803,41351
30.0866,35439
30.0929,33527
30.0992,33573
30.1055,29909
30.1118,30129
30.1181,28441
30.1245,26839
30.1308,26522
30.1371,27749
30.1434,31660
30.1497,40020
30.156,51211
30.1623,67382
30.1686,101781
30.1749,158741
30.1812,257203
30.1875,429289
30.1939,716422
30.2002,1268122
30.2065,2400574
30.2128,4291097
30.2191,6051945
30.2254,6652553
30.2317,5042866
30.238,2756830
30.2443,1134520
30.2506,415347
30.2569,184701
30.2632,109934
30.2696,84686
30.2759,75027
30.2822,67230
30.2885,56077
30.2948,50454
30.3011,48183
30.3074,44547
30.3137,43936
30.32,43638
30.3263,39161
30.3326,37610
30.3389,34302
30.3453,32944
30.3516,33755
30.3579,34846
30.3642,38247
30.3705,40163
30.3768,36766
30.3831,36622
30.3894,34965
30.3957,31746
30.402,36505
30.4083,45550
30.4147,69389
30.421,99354
30.4273,120869
30.4336,103042
30.4399,69067
30.4462,45717
30.4525,36011
30.4588,36772
30.4651,39667
30.4714,45356
30.4777,49887
30.484,51901
30.4904,48808
30.4967,43107
30.503,42337
30.5093,38439
30.5156,30594
30.5219,29411
30.5282,30518
30.5345,28988
30.5408,29223
30.5471,28923
30.5534,31113
30.5598,32435
30.5661,33942
30.5724,38148
30.5787,34497
30.585,33687
30.5913,30737
30.5976,28013
30.6039,26748
30.6102,25928
30.6165,25822
30.6228,24560
30.6291,25217
30.6355,24024
30.6418,24206
30.6481,21704
30.6544,25072
30.6607,24310
30.667,23430
30.6733,23832
30.6796,27927
30.6859,24156
30.6922,22267
30.6985,23945
30.7049,23000
30.7112,20857
30.7175,24709
30.7238,22993
30.7301,24164
30.7364,25008
30.7427,27486
30.749,24667
30.7553,25277
30.7616,24429
30.7679,23573
30.7742,22930
30.7806,23702
30.7869,23491
30.7932,25295
30.7995,26860
30.8058,29074
30.8121,27553
30.8184,28880
30.8247,25087
30.831,25416
30.8373,23072
30.8436,22647
30.8499,19580
30.8563,23771
30.8626,21684
30.8689,21691
30.8752,22679
30.8815,21459
30.8878,22513
30.8941,22145
30.9004,23566
30.9067,22563
30.913,21463
30.9193,21118
30.9257,22464
30.932,25215
30.9383,26359
30.9446,25184
30.9509,25726
30.9572,23642
30.9635,25534
30.9698,25012
30.9761,22340
30.9824,24382
30.9887,25165
30.995,31443
31.0014,30711
31.0077,29550
31.014,27550
31.0203,27683
31.0266,28028
31.0329,27153
31.0392,26479
31.0455,25679
31.0518,25244
31.0581,24766
31.0644,26601
31.0708,26243
31.0771,29845
31.0834,27580
31.0897,25651
31.096,25302
31.1023,25928
31.1086,24236
31.1149,24816
31.1212,27256
31.1275,24302
31.1338,25669
31.1401,26663
31.1465,26938
31.1528,26712
31.1591,25095
31.1654,26831
31.1717,28073
31.178,27149
31.1843,31741
31.1906,32532
31.1969,36537
31.2032,39396
31.2095,36704
31.2159,32719
31.2222,33943
31.2285,33378
31.2348,30736
31.2411,27663
31.2474,29925
31.2537,29810
31.26,28037
31.2663,32341
31.2726,30847
31.2789,28279
31.2852,27632
31.2916,29710
31.2979,38965
31.3042,63680
31.3105,74929
31.3168,69354
31.3231,52979
31.3294,37402
31.3357,33414
31.342,32096
31.3483,30083
31.3546,31698
31.3609,31196
31.3673,29707
31.3736,31350
31.3799,30999
31.3862,37732
31.3925,46694
31.3988,56566
31.4051,68564
31.4114,69657
31.4177,65422
31.424,53474
31.4303,45776
31.4367,40694
31.443,37857
31.4493,35899
31.4556,36331
31.4619,36182
31.4682,38496
31.4745,37000
31.4808,36856
31.4871,34533
31.4934,34199
31.4997,39559
31.506,40435
31.5124,41530
31.5187,42248
31.525,38998
31.5313,36748
31.5376,32592
31.5439,34844
31.5502,30443
31.5565,31411
31.5628,31834
31.5691,33985
31.5754,33783
31.5818,32764
31.5881,35782
31.5944,36768
31.6007,33075
31.607,34417
31.6133,37057
31.6196,33161
31.6259,35530
31.6322,38695
31.6385,41308
31.6448,44522
31.6511,51078
31.6575,49258
31.6638,44068
31.6701,36389
31.6764,35797
31.6827,38688
31.689,37735
31.6953,40261
31.7016,44569
31.7079,53150
31.7142,52675
31.7205,54648
31.7268,54829
31.7332,57427
31.7395,75532
31.7458,97721
31.7521,113375
31.7584,120253
31.7647,116309
31.771,116035
31.7773,121496
31.7836,151953
31.7899,182823
31.7962,238742
31.8026,303546
31.8089,428025
31.8152,574534
31.8215,772077
31.8278,1028827
31.8341,1324750
31.8404,1702843
31.8467,2146614
31.853,2782605
31.8593,3504214
31.8656,4283532
31.8719,5046166
31.8783,6067658
31.8846,7175937
31.8909,8006099
31.8972,9297578
31.9035,10796908
31.9098,11939822
31.9161,12174744
31.9224,12001268
31.9287,11650794
31.935,11604687
31.9413,12412703
31.9477,13443012
31.954,14820505
31.9603,16609253
31.9666,18717224
31.9729,19862998
31.9792,20651934
31.9855,20988524
31.9918,19827624
31.9981,18377376
32.0044,16325499
32.0107,13219588
32.017,10538662
32.0234,8259955
32.0296,6511098
32.036,5215101
32.0423,4239925
32.0486,3505996
32.0549,2994264
32.0612,2591827
32.0675,2284749
32.0738,2036566
32.0801,1851812
32.0864,1692928
32.0928,1533853
32.099,1434292
32.1054,1359437
32.1117,1262100
32.118,1211448
32.1243,1172233
32.1306,1085872
32.1369,1010975
32.1432,950797
32.1495,900159
32.1558,848010
32.1621,805238
32.1685,772532
32.1748,747203
32.1811,717965
32.1874,688246
32.1937,660181
32.2,632605
32.2063,619829
32.2126,592643
32.2189,581388
32.2252,559329
32.2315,543171
32.2378,536742
32.2441,518674
32.2505,507974
32.2568,487614
32.2631,468031
32.2694,448990
32.2757,443416
32.282,419880
32.2883,417757
32.2946,411485
32.3009,402367
32.3072,403296
32.3135,383596
32.3199,376969
32.3262,368464
32.3325,361335
32.3388,349493
32.3451,344783
32.3514,340236
32.3577,330672
32.364,321480
32.3703,318184
32.3766,303905
32.3829,310875
32.3892,305512
32.3956,295814
32.4019,286432
32.4082,289326
32.4145,283862
32.4208,271221
32.4271,266261
32.4334,267386
32.4397,268000
32.446,258518
32.4523,259390
32.4586,258739
32.465,250145
32.4713,251603
32.4776,251451
32.4839,240311
32.4902,237523
32.4965,234386
32.5028,227328
32.5091,228834
32.5154,228713
32.5217,222273
32.528,220994
32.5344,216255
32.5406,213357
32.547,216551
32.5533,211063
32.5596,200101
32.5659,204387
32.5722,197763
32.5785,192762
32.5848,195334
32.5911,186463
32.5974,184127
32.6037,186992
32.6101,189735
32.6164,184533
32.6227,180224
32.629,182190
32.6353,175495
32.6416,177638
32.6479,173459
32.6542,174761
32.6605,168357
32.6668,167111
32.6731,169872
32.6795,165390
32.6857,165394
32.6921,165917
32.6984,159987
32.7047,160234
32.711,156203
32.7173,155060
32.7236,158162
32.7299,156051
32.7362,155416
32.7425,156221
32.7488,156078
32.7552,161862
32.7615,155473
32.7678,153939
32.7741,152121
32.7804,146606
32.7867,143578
32.793,144053
32.7993,140458
32.8056,143464
32.8119,142505
32.8182,137059
32.8246,142857
32.8308,141078
32.8372,139863
32.8435,135735
32.8498,133296
32.8561,129889
32.8624,132189
32.8687,131328
32.875,129345
32.8813,131699
32.8876,123110
32.8939,126571
32.9003,124956
32.9066,119204
32.9129,125120
32.9192,120374
32.9255,121448
32.9318,122751
32.9381,124228
32.9444,119641
32.9507,120842
32.957,117254
32.9633,121342
32.9697,126688
32.9759,138977
32.9823,146426
32.9886,151828
32.9949,142184
33.0012,136703
33.0075,126847
33.0138,121823
33.0201,120369
33.0264,116215
33.0327,117545
33.039,116350
33.0453,111902
33.0517,111676
33.058,112720
33.0643,109462
33.0706,109586
33.0769,108678
33.0832,110799
33.0895,108583
33.0958,107549
33.1021,107829
33.1084,106476
33.1148,103921
33.121,105288
33.1274,104954
33.1337,102902
33.14,103774
33.1463,104363
33.1526,101851
33.1589,102020
33.1652,102180
33.1715,100131
33.1778,103708
33.1841,108212
33.1904,108417
33.1968,109142
33.2031,109588
33.2094,102596
33.2157,104962
33.222,100145
33.2283,98451
33.2346,103036
33.2409,99104
33.2472,96702
33.2535,99888
33.2598,103262
33.2662,105652
33.2724,100999
33.2788,99802
33.2851,101993
33.2914,96948
33.2977,96913
33.304,98192
33.3103,98076
33.3166,97399
33.3229,98810
33.3292,97922
33.3355,98619
33.3419,97138
33.3482,93708
33.3545,94147
33.3608,95692
33.3671,93127
33.3734,90978
33.3797,91500
33.386,92830
33.3923,93368
33.3986,92460
33.4049,91761
33.4113,87887
33.4175,87650
33.4239,86431
33.4302,90939
33.4365,87623
33.4428,86530
33.4491,86305
33.4554,86740
33.4617,84068
33.468,84774
33.4743,85579
33.4806,87327
33.487,86848
33.4933,89342
33.4996,91706
33.5059,90116
33.5122,93012
33.5185,89755
33.5248,86109
33.5311,90984
33.5374,86656
33.5437,89315
33.55,84629
33.5564,85864
33.5626,87013
33.569,86529
33.5753,89214
33.5816,94788
33.5879,100042
33.5942,101344
33.6005,104697
33.6068,102319
33.6131,100433
33.6194,99075
33.6257,97051
33.6321,90120
33.6384,89744
33.6447,85781
33.651,86432
33.6573,88044
33.6636,92443
33.6699,92995
33.6762,91514
33.6825,88400
33.6888,88420
33.6951,86189
33.7015,84475
33.7077,83621
33.7141,83211
33.7204,79930
33.7267,83879
33.733,87250
33.7393,87110
33.7456,87967
33.7519,92649
33.7582,98914
33.7645,99917
33.7708,98429
33.7771,95098
33.7835,89300
33.7898,83013
33.7961,83514
33.8024,81464
33.8087,83193
33.815,79191
33.8213,84443
33.8276,89043
33.8339,90227
33.8402,91093
33.8466,89393
33.8528,85678
33.8592,87225
33.8655,81600
33.8718,84502
33.8781,79129
33.8844,77232
33.8907,78191
33.897,82512
33.9033,77057
33.9096,77960
33.9159,78275
33.9222,76062
33.9286,77663
33.9349,78088
33.9412,85995
33.9475,90422
33.9538,98108
33.9601,98439
33.9664,96352
33.9727,92919
33.979,84901
33.9853,80693
33.9917,77877
33.998,79486
34.0043,79790
34.0106,77202
34.0169,73730
34.0232,75462
34.0295,75698
34.0358,70972
34.0421,72324
34.0484,75982
34.0547,73662
34.061,76271
34.0673,72844
34.0737,71429
34.08,74726
34.0863,75728
34.0926,74791
34.0989,69167
34.1052,71972
34.1115,69628
34.1178,70438
34.1241,68762
34.1304,72699
34.1367,71429
34.1431,73604
34.1493,68397
34.1557,70581
34.162,70583
34.1683,70212
34.1746,69706
34.1809,69373
34.1872,69509
34.1935,71378
34.1998,69547
34.2061,70784
34.2124,70410
34.2188,69760
34.2251,71165
34.2314,67361
34.2377,74358
34.244,71570
34.2503,71468
34.2566,68803
34.2629,70354
34.2692,66088
34.2755,71202
34.2818,67075
34.2882,64521
34.2944,68826
34.3008,62106
34.3071,66471
34.3134,66835
34.3197,66461
34.326,68080
34.3323,69167
34.3386,68756
34.3449,64840
34.3512,67093
34.3576,65262
34.3638,65672
34.3702,66235
34.3765,64783
34.3828,62711
34.3891,61405
34.3954,64465
34.4017,65239
34.408,63973
34.4143,67603
34.4206,67133
34.4269,61823
34.4333,63697
34.4395,60647
34.4459,59961
34.4522,59998
34.4585,59567
34.4648,63841
34.4711,62595
34.4774,61362
34.4837,66508
34.49,63538
34.4963,62266
34.5027,60786
34.5089,64954
34.5153,63597
34.5216,64515
34.5279,61245
34.5342,59495
34.5405,58053
34.5468,59624
34.5531,60617
34.5594,60370
34.5657,63961
34.572,61316
34.5784,63310
34.5847,61892
34.591,58631
34.5973,60035
34.6036,60280
34.6099,61084
34.6162,61434
34.6225,63156
34.6288,61289
34.6351,63021
34.6414,66491
34.6477,65276
34.654,61162
34.6604,65161
34.6667,66290
34.673,64385
34.6793,65487
34.6856,67989
34.6919,64662
34.6982,61751
34.7045,65591
34.7108,63735
34.7171,64087
34.7235,63664
34.7298,64497
34.7361,59613
34.7424,60106
34.7487,65096
34.755,60082
34.7613,59559
34.7676,61233
34.7739,61919
34.7802,62129
34.7865,59944
34.7928,60574
34.7991,62542
34.8055,61514
34.8118,62401
34.8181,59490
34.8244,65508
34.8307,59181
34.837,60100
34.8433,60832
34.8496,59486
34.8559,58058
34.8622,59323
34.8685,57383
34.8749,61642
34.8812,57984
34.8875,56202
34.8938,59510
34.9001,56608
34.9064,59198
34.9127,59060
34.919,56610
34.9253,55732
34.9316,57386
34.9379,60498
34.9442,59672
34.9506,56915
34.9569,59501
34.9632,57776
34.9695,55302
34.9758,55664
34.9821,56917
34.9884,56900
34.9947,54632
35.001,57644
35.0073,56213
35.0136,56552
35.02,57397
35.0263,56074
35.0326,56638
35.0389,54926
35.0452,53962
35.0515,55274
35.0578,56115
35.0641,57092
35.0704,54389
35.0767,54433
35.083,54672
35.0894,58776
35.0956,62548
35.102,60753
35.1083,61425
35.1146,63528
35.1209,61530
35.1272,59547
35.1335,60617
35.1398,62256
35.1461,58098
35.1524,56631
35.1587,58146
35.1651,58626
35.1714,54090
35.1777,56574
35.184,58077
35.1903,55113
35.1966,57066
35.2029,55418
35.2092,54794
35.2155,52183
35.2218,52467
35.2281,55142
35.2345,55877
35.2407,53203
35.2471,53235
35.2534,53182
35.2597,53312
35.266,54987
35.2723,54978
35.2786,50609
35.2849,51549
35.2912,52384
35.2975,54724
35.3038,54224
35.3102,56076
35.3165,49963
35.3228,51897
35.3291,51784
35.3354,53588
35.3417,53846
35.348,53710
35.3543,53677
35.3606,51549
35.3669,55018
35.3732,54224
35.3796,53355
35.3859,57141
35.3922,57038
35.3985,63445
35.4048,70777
35.4111,85955
35.4174,95171
35.4237,105667
35.43,113952
35.4363,119832
35.4426,121638
35.4489,118868
35.4552,109870
35.4616,110804
35.4679,104867
35.4742,101197
35.4805,96386
35.4868,91180
35.4931,90379
35.4994,90092
35.5057,90496
35.512,91948
35.5183,91125
35.5246,92000
35.531,88669
35.5373,83737
35.5436,81758
35.5499,82358
35.5562,78863
35.5625,81314
35.5688,81390
35.5751,90016
35.5814,84509
35.5877,88074
35.594,87696
35.6003,86497
35.6067,78088
35.613,78747
35.6193,78939
35.6256,76516
35.6319,77408
35.6382,74120
35.6445,69172
35.6508,70505
35.6571,72656
35.6634,75046
35.6697,70871
35.6761,72791
35.6824,73062
35.6887,76046
35.695,80396
35.7013,77329
35.7076,77225
35.7139,75013
35.7202,73276
35.7265,70902
35.7328,72134
35.7391,68938
35.7454,72200
35.7518,69852
35.7581,71398
35.7644,74628
35.7707,79246
35.777,83707
35.7833,89577
35.7896,97879
35.7959,103678
35.8022,112986
35.8085,119739
35.8148,137059
35.8212,157312
35.8274,183316
35.8338,213162
35.8401,257543
35.8464,309140
35.8527,374260
35.859,449213
35.8653,539207
35.8716,656125
35.8779,769964
35.8842,911942
35.8906,1074663
35.8969,1248543
35.9032,1436183
35.9095,1682006
35.9158,1960673
35.9221,2274130
35.9284,2647201
35.9347,2993044
35.941,3433310
35.9473,3949702
35.9536,4419762
35.9599,4964135
35.9663,5537589
35.9725,6025061
35.9789,6456082
35.9852,6823797
35.9915,7226821
35.9978,7659226
36.0041,8209499
36.0104,8807676
36.0167,9432591
36.023,10214351
36.0293,11012946
36.0356,11840536
36.042,12407734
36.0483,13002781
36.0546,13245027
36.0609,13252966
36.0672,13029514
36.0735,12380220
36.0798,11291482
36.0861,9988297
36.0924,8542736
36.0987,7088854
36.105,5888242
36.1114,4894923
36.1177,4108324
36.124,3499770
36.1303,3017595
36.1366,2647337
36.1429,2354096
36.1492,2098721
36.1555,1908326
36.1618,1749406
36.1681,1640419
36.1744,1506834
36.1807,1401542
36.187,1322034
36.1934,1240187
36.1997,1159000
36.206,1108656
36.2123,1044745
36.2186,1000263
36.2249,958759
36.2312,916243
36.2375,875051
36.2438,841366
36.2501,804470
36.2565,800734
36.2628,756234
36.2691,732742
36.2754,697783
36.2817,677391
36.288,656026
36.2943,634370
36.3006,621062
36.3069,601282
36.3132,586634
36.3195,568658
36.3258,561054
36.3321,548559
36.3385,534168
36.3448,516903
36.3511,508325
36.3574,498108
36.3637,489285
36.37,482075
36.3763,465700
36.3826,456937
36.3889,441894
36.3952,424436
36.4016,421323
36.4079,414078
36.4142,413804
36.4205,402486
36.4268,393193
36.4331,377907
36.4394,379009
36.4457,369759
36.452,367400
36.4583,356425
36.4646,352453
36.4709,345892
36.4773,341203
36.4836,337896
36.4899,329448
36.4962,332814
36.5025,323176
36.5088,311587
36.5151,311809
36.5214,315119
36.5277,305173
36.534,298122
36.5403,295925
36.5466,290663
36.553,287808
36.5592,282964
36.5656,280404
36.5719,272043
36.5782,274152
36.5845,269144
36.5908,263226
36.5971,259833
36.6034,250586
36.6097,256769
36.616,250807
36.6224,250500
36.6287,248043
36.635,245651
36.6413,244511
36.6476,240548
36.6539,240662
36.6602,233374
36.6665,227700
36.6728,227220
36.6791,224097
36.6854,228149
36.6917,222356
36.6981,215904
36.7044,209677
36.7107,214210
36.717,212065
36.7233,208602
36.7296,206421
36.7359,202816
36.7422,202847
36.7485,201830
36.7548,199555
36.7611,198843
36.7675,197261
36.7738,196383
36.7801,195812
36.7864,197470
36.7927,194658
36.799,186824
36.8053,185334
36.8116,186368
36.8179,179068
36.8242,179959
36.8305,182278
36.8368,179537
36.8432,180644
36.8495,179681
36.8558,174034
36.8621,172399
36.8684,169336
36.8747,163291
36.881,173944
36.8873,168733
36.8936,170629
36.8999,165533
36.9062,167253
36.9125,164383
36.9188,158448
36.9252,160070
36.9315,157080
36.9378,160857
36.9441,159085
36.9504,154419
36.9567,155786
36.963,154241
36.9693,152222
36.9756,150655
36.9819,151567
36.9883,152622
36.9946,146756
37.0009,147628
37.0072,149965
37.0135,143050
37.0198,145186
37.0261,140521
37.0324,139499
37.0387,142517
37.045,143922
37.0513,138789
37.0576,138705
37.0639,139913
37.0703,139834
37.0766,139597
37.0829,137244
37.0892,135868
37.0955,138438
37.1018,137519
37.1081,133904
37.1144,134033
37.1207,131339
37.127,134136
37.1334,129840
37.1397,131888
37.146,129662
37.1523,126743
37.1586,134772
37.1649,126489
37.1712,126826
37.1775,127691
37.1838,127167
37.1901,129772
37.1964,125322
37.2027,125113
37.2091,121299
37.2154,127016
37.2217,122367
37.228,119166
37.2343,118613
37.2406,122775
37.2469,118124
37.2532,117867
37.2595,119861
37.2658,118984
37.2721,115110
37.2784,112640
37.2848,117297
37.2911,111747
37.2974,117405
37.3037,117737
37.31,110981
37.3163,109111
37.3226,112111
37.3289,114449
37.3352,112136
37.3415,112543
37.3478,112244
37.3542,106936
37.3605,111495
37.3668,109499
37.3731,106566
37.3794,106661
37.3857,108896
37.392,110322
37.3983,107046
37.4046,102933
37.4109,103194
37.4172,104065
37.4235,103769
37.4299,107646
37.4362,108194
37.4425,106605
37.4488,104849
37.4551,103894
37.4614,103423
37.4677,100301
37.474,100888
37.4803,100213
37.4866,99717
37.4929,100963
37.4993,100183
37.5055,98903
37.5119,98590
37.5182,97589
37.5245,98664
37.5308,101194
37.5371,97675
37.5434,96839
37.5497,94555
37.556,96349
37.5623,101507
37.5686,93521
37.575,94220
37.5813,94227
37.5876,95870
37.5939,98092
37.6002,97962
37.6065,92351
37.6128,94670
37.6191,94851
37.6254,91409
37.6317,93078
37.638,98215
37.6444,93060
37.6506,91568
37.657,91698
37.6633,88858
37.6696,87848
37.6759,89232
37.6822,90121
37.6885,91115
37.6948,90795
37.7011,90175
37.7074,91724
37.7137,89828
37.7201,90284
37.7264,87951
37.7327,88327
37.739,88271
37.7453,91648
37.7516,87350
37.7579,89612
37.7642,86739
37.7705,88530
37.7768,91739
37.7831,84775
37.7895,88722
37.7958,86978
37.8021,87737
37.8084,83952
37.8147,88533
37.821,85360
37.8273,87606
37.8336,84735
37.8399,84934
37.8462,84676
37.8525,84285
37.8588,84397
37.8652,85381
37.8715,84325
37.8778,82965
37.8841,82308
37.8904,81769
37.8967,81088
37.903,81328
37.9093,80668
37.9156,82374
37.9219,84208
37.9282,82073
37.9345,83031
37.9409,77374
37.9472,78063
37.9535,81596
37.9598,80707
37.9661,79502
37.9724,80818
37.9787,81132
37.985,80881
37.9913,80048
37.9976,76371
38.0039,77654
38.0102,79640
38.0166,77837
38.0229,78348
38.0292,77715
38.0355,79157
38.0418,79314
38.0481,77740
38.0544,79610
38.0607,80293
38.067,77067
38.0733,78281
38.0796,76776
38.086,77638
38.0923,78275
38.0986,77945
38.1049,77635
38.1112,77783
38.1175,76944
38.1238,75510
38.1301,75500
38.1364,78466
38.1427,78059
38.149,75040
38.1553,76633
38.1617,75638
38.168,74141
38.1743,74279
38.1806,77117
38.1869,74213
38.1932,73533
38.1995,73763
38.2058,76206
38.2121,75435
38.2184,73462
38.2247,74781
38.2311,76056
38.2373,74440
38.2437,76552
38.25,78206
38.2563,75221
38.2626,75405
38.2689,77398
38.2752,74698
38.2815,77906
38.2878,72976
38.2941,73758
38.3005,75872
38.3068,74650
38.3131,76810
38.3194,78234
38.3257,78691
38.332,76937
38.3383,78827
38.3446,77928
38.3509,78808
38.3572,78370
38.3635,74572
38.3698,74306
38.3762,73695
38.3824,74176
38.3888,71877
38.3951,71310
38.4014,74314
38.4077,72561
38.414,73262
38.4203,73427
38.4266,72850
38.4329,69630
38.4392,70992
38.4455,70795
38.4519,70102
38.4582,69378
38.4645,68073
38.4708,73805
38.4771,66942
38.4834,70916
38.4897,67895
38.496,69227
38.5023,67672
38.5086,70015
38.5149,69282
38.5213,72971
38.5276,70798
38.5339,73957
38.5402,73466
38.5465,76636
38.5528,75271
38.5591,76132
38.5654,81826
38.5717,84209
38.578,86539
38.5843,82987
38.5906,79238
38.597,78181
38.6033,80351
38.6096,77067
38.6159,74445
38.6222,71400
38.6285,71816
38.6348,69747
38.6411,66284
38.6474,66486
38.6537,68196
38.66,66715
38.6664,66673
38.6727,66294
38.679,66834
38.6853,65480
38.6916,64738
38.6979,64719
38.7042,64223
38.7105,66464
38.7168,65530
38.7231,62818
38.7294,64800
38.7357,65858
38.742,63764
38.7484,65686
38.7547,64974
38.761,65472
38.7673,63248
38.7736,62585
38.7799,61743
38.7862,62676
38.7925,61341
38.7988,62006
38.8051,65139
38.8114,61048
38.8178,62035
38.8241,64007
38.8304,62358
38.8367,62981
38.843,64067
38.8493,63595
38.8556,62853
38.8619,64832
38.8682,62417
38.8745,61766
38.8808,62043
38.8871,63595
38.8935,59781
38.8998,63013
38.9061,60218
38.9124,60782
38.9187,58896
38.925,62929
38.9313,62302
38.9376,60766
38.9439,66284
38.9502,68516
38.9565,73023
38.9629,81661
38.9691,93559
38.9755,112939
38.9818,134467
38.9881,160729
38.9944,192680
39.0007,219404
39.007,255794
39.0133,275541
39.0196,297947
39.0259,299015
39.0323,286819
39.0386,282488
39.0449,251233
39.0512,230890
39.0575,209632
39.0638,186393
39.0701,167022
39.0764,149995
39.0827,136842
39.089,124891
39.0953,121176
39.1016,112166
39.108,106832
39.1142,102659
39.1206,100527
39.1269,93019
39.1332,95493
39.1395,92706
39.1458,88703
39.1521,85218
39.1584,82115
39.1647,84584
39.171,80001
39.1774,78291
39.1837,83019
39.19,76122
39.1963,75521
39.2026,79370
39.2089,74363
39.2152,76306
39.2215,70770
39.2278,74038
39.2341,72501
39.2404,69130
39.2467,70351
39.2531,71931
39.2594,72374
39.2657,66859
39.272,68965
39.2783,66768
39.2846,65754
39.2909,65566
39.2972,63166
39.3035,65670
39.3098,66143
39.3161,65963
39.3224,62963
39.3287,65380
39.3351,64028
39.3414,64494
39.3477,61910
39.354,62896
39.3603,63649
39.3666,61219
39.3729,63310
39.3792,63160
39.3855,58654
39.3918,58968
39.3982,62768
39.4045,62870
39.4108,63980
39.4171,60776
39.4234,60684
39.4297,58920
39.436,60407
39.4423,61032
39.4486,60892
39.4549,59051
39.4612,58025
39.4675,60587
39.4738,57556
39.4802,56846
39.4865,56087
39.4928,57127
39.4991,58492
39.5054,58481
39.5117,56345
39.518,60495
39.5243,58437
39.5306,62079
39.5369,55448
39.5433,58146
39.5496,59816
39.5559,56686
39.5622,56514
39.5685,58902
39.5748,57280
39.5811,56741
39.5874,54744
39.5937,59928
39.6,56453
39.6063,55043
39.6126,54488
39.619,56372
39.6253,57007
39.6316,59563
39.6379,56223
39.6442,59629
39.6505,56451
39.6568,55367
39.6631,56751
39.6694,57556
39.6757,58346
39.682,56805
39.6884,55002
39.6947,55445
39.701,57639
39.7073,52665
39.7136,54462
39.7199,55449
39.7262,57318
39.7325,58540
39.7388,55226
39.7451,55395
39.7514,56001
39.7577,55016
39.7641,51372
39.7704,54839
39.7767,52743
39.783,58822
39.7893,53641
39.7956,54284
39.8019,56274
39.8082,56918
39.8145,55033
39.8208,53558
39.8271,56177
39.8334,54558
39.8398,56500
39.8461,52175
39.8524,56170
39.8587,56260
39.865,54866
39.8713,53730
39.8776,54005
39.8839,52331
39.8902,54126
39.8965,55375
39.9028,54862
39.9092,53235
39.9155,58499
39.9218,56219
39.9281,54763
39.9344,52272
39.9407,56322
39.947,49376
39.9533,52761
39.9596,53475
39.9659,52011
39.9722,58129
39.9785,55647
39.9849,52707
39.9912,55156
39.9975,53339
40.0038,53956
40.0101,50584
40.0164,53177
40.0227,51703
40.029,51770
40.0353,52299
40.0416,51344
40.0479,56828
40.0543,51010
40.0605,50354
40.0669,51368
40.0732,54074
40.0795,49637
40.0858,53688
40.0921,53866
40.0984,53276
40.1047,55148
40.111,54996
40.1173,52602
40.1236,53155
40.13,55154
40.1363,52603
40.1426,51028
40.1489,53747
40.1552,50065
40.1615,52638
40.1678,51934
40.1741,51855
40.1804,50529
40.1867,50203
40.193,50805
40.1994,52556
40.2056,52072
40.212,53593
40.2183,52298
40.2246,48111
40.2309,48995
40.2372,50080
40.2435,49679
40.2498,49921
40.2561,52207
40.2624,50476
40.2687,48757
40.2751,49936
40.2814,53250
40.2877,52057
40.294,50392
40.3003,52262
40.3066,46944
40.3129,47160
40.3192,52059
40.3255,49370
40.3318,53212
40.3381,52972
40.3444,48950
40.3508,55846
40.3571,51404
40.3634,47879
40.3697,50678
40.376,51722
40.3823,49440
40.3886,51354
40.3949,50391
40.4012,48562
40.4075,49097
40.4138,49855
40.4202,49155
40.4265,49880
40.4328,52155
40.4391,50709
40.4454,49201
40.4517,53039
40.458,50111
40.4643,50010
40.4706,51328
40.4769,50856
40.4832,53827
40.4895,47129
40.4959,53829
40.5022,49872
40.5085,51952
40.5148,48616
40.5211,49651
40.5274,54671
40.5337,49936
40.54,49864
40.5463,50342
40.5526,49347
40.5589,49637
40.5652,51363
40.5716,51995
40.5779,48825
40.5842,51553
40.5905,48189
40.5968,50975
40.6031,49739
40.6094,51473
40.6157,50072
40.622,53031
40.6283,53196
40.6346,54378
40.641,51253
40.6473,52396
40.6536,55028
40.6599,54347
40.6662,51354
40.6725,56096
40.6788,52028
40.6851,53590
40.6914,51341
40.6977,51908
40.704,51300
40.7103,52362
40.7167,51802
40.723,51541
40.7293,49123
40.7356,49243
40.7419,51461
40.7482,51728
40.7545,51770
40.7608,46349
40.7671,51462
40.7734,49711
40.7797,54009
40.7861,48518
40.7923,50645
40.7987,50843
40.805,48781
40.8113,50980
40.8176,50937
40.8239,50450
40.8302,53245
40.8365,50629
40.8428,49878
40.8491,48757
40.8554,47205
40.8618,49893
40.8681,48829
40.8744,44573
40.8807,48960
40.887,50406
40.8933,46590
40.8996,48737
40.9059,50597
40.9122,51062
40.9185,50284
40.9248,51422
40.9312,50192
40.9375,52082
40.9438,51094
40.9501,53010
40.9564,53572
40.9627,55320
40.969,53350
40.9753,57305
40.9816,59735
40.9879,62092
40.9942,66993
41.0005,70245
41.0069,76588
41.0132,80693
41.0195,90821
41.0258,99341
41.0321,112531
41.0384,123543
41.0447,139011
41.051,159467
41.0573,180522
41.0636,203783
41.0699,233186
41.0763,261841
41.0826,299135
41.0889,338557
41.0952,382553
41.1015,432702
41.1078,507296
41.1141,581530
41.1204,653572
41.1267,728390
41.133,817596
41.1393,916217
41.1456,1039722
41.1519,1164470
41.1583,1304724
41.1646,1447898
41.1709,1603290
41.1772,1779126
41.1835,1940490
41.1898,2141636
41.1961,2350438
41.2024,2513208
41.2087,2689134
41.215,2920084
41.2213,3153833
41.2277,3401286
41.234,3611750
41.2403,3899434
41.2466,4160102
41.2529,4479443
41.2592,4766006
41.2655,5023657
41.2718,5331384
41.2781,5487557
41.2844,5793091
41.2907,5974745
41.297,6156143
41.3034,6251820
41.3097,6308969
41.316,6310736
41.3223,6252008
41.3286,6026409
41.3349,5694534
41.3412,5310124
41.3475,4826531
41.3538,4363811
41.3601,3868120
41.3664,3421931
41.3728,3029467
41.379,2659927
41.3854,2389539
41.3917,2128299
41.398,1909820
41.4043,1725267
41.4106,1583944
41.4169,1462565
41.4232,1341741
41.4295,1250200
41.4358,1172825
41.4422,1101697
41.4485,1031982
41.4548,987520
41.4611,938161
41.4674,892664
41.4737,847885
41.48,810270
41.4863,787100
41.4926,747570
41.4989,712466
41.5052,699361
41.5115,672604
41.5179,644448
41.5241,620071
41.5305,604808
41.5368,592286
41.5431,564825
41.5494,564106
41.5557,525310
41.562,518495
41.5683,499567
41.5746,493635
41.5809,472672
41.5873,468574
41.5936,467342
41.5999,444853
41.6062,433481
41.6125,430475
41.6188,420905
41.6251,399864
41.6314,395969
41.6377,398145
41.644,387288
41.6503,376974
41.6566,370263
